Emg_cnt
1732.00
1741.00
1743.00
1743.00
1741.00
1742.00
1737.00
1738.00
31.00
1730.00
1727.00
1724.00
1723.00
1719.00
1719.00
1727.00
1734.00
1742.00
1745.00
1746.00
1750.00
1751.00
1745.00
1743.00
1738.00
1732.00
1733.00
1738.00
1732.00
1731.00
1734.00
1732.00
1731.00
1730.00
1731.00
1738.00
1738.00
1736.00
1734.00
1735.00
1733.00
1731.00
1742.00
1745.00
1751.00
1753.00
1761.00
1765.00
1774.00
1774.00
1776.00
1771.00
1762.00
1760.00
1753.00
1756.00
1754.00
1747.00
1750.00
1755.00
1766.00
1777.00
1785.00
1791.00
1797.00
1798.00
1802.00
1802.00
1798.00
1797.00
1793.00
1783.00
1776.00
1767.00
1764.00
1763.00
1760.00
1762.00
1761.00
1759.00
1759.00
1758.00
1755.00
1751.00
1744.00
1744.00
1739.00
1743.00
1738.00
1739.00
1737.00
1733.00
1728.00
1723.00
1719.00
1727.00
1729.00
1738.00
1742.00
1744.00
1746.00
1750.00
1749.00
1754.00
1757.00
1757.00
1757.00
1757.00
1753.00
1751.00
1747.00
1744.00
1744.00
1739.00
1735.00
1730.00
1730.00
1728.00
1728.00
1730.00
1729.00
1737.00
1739.00
1739.00
1737.00
1737.00
1731.00
1728.00
1727.00
1718.00
1714.00
1713.00
1713.00
1712.00
1712.00
1714.00
1716.00
1718.00
1727.00
1728.00
1730.00
1735.00
1735.00
1734.00
1731.00
1729.00
1729.00
1727.00
1726.00
1726.00
1727.00
1733.00
1735.00
1739.00
1741.00
1744.00
1750.00
1749.00
1754.00
1758.00
1756.00
1754.00
1749.00
1745.00
1743.00
1742.00
1733.00
1734.00
1731.00
1730.00
1730.00
1739.00
1743.00
1742.00
1744.00
1745.00
1750.00
1760.00
1765.00
1769.00
1766.00
1760.00
1751.00
1744.00
1739.00
1734.00
1730.00
1727.00
1728.00
1723.00
1728.00
1725.00
1721.00
1719.00
1719.00
1719.00
1721.00
1723.00
1725.00
1727.00
1727.00
1724.00
1726.00
1723.00
1722.00
1716.00
1714.00
1712.00
1710.00
1708.00
1709.00
1714.00
1712.00
1712.00
1712.00
1712.00
1712.00
1711.00
1712.00
1715.00
1719.00
1725.00
1730.00
1739.00
1741.00
1742.00
1735.00
1739.00
1735.00
1733.00
1734.00
1735.00
1738.00
1735.00
1739.00
1741.00
1745.00
1751.00
1747.00
1744.00
1746.00
1744.00
1737.00
1737.00
1733.00
1733.00
1731.00
1731.00
1749.00
1734.00
1728.00
1730.00
1730.00
1735.00
1735.00
1738.00
1733.00
1737.00
1734.00
1733.00
1734.00
1735.00
1735.00
1731.00
1727.00
1719.00
1713.00
1711.00
1708.00
1709.00
1706.00
1699.00
1693.00
1696.00
1700.00
1703.00
1710.00
1713.00
1718.00
1717.00
1718.00
1715.00
1712.00
1711.00
1707.00
1705.00
1705.00
1710.00
1704.00
1696.00
1694.00
1687.00
1690.00
1694.00
1694.00
1698.00
1703.00
1712.00
1713.00
1718.00
1718.00
1723.00
1726.00
1726.00
1723.00
1727.00
1719.00
1714.00
1712.00
1711.00
1708.00
1708.00
1708.00
1705.00
1711.00
1712.00
1718.00
1722.00
1725.00
1725.00
1723.00
1726.00
1726.00
1727.00
1728.00
1722.00
1717.00
1714.00
1712.00
1711.00
1711.00
1710.00
1705.00
1703.00
1701.00
1699.00
1699.00
1709.00
1714.00
1727.00
1729.00
1728.00
1727.00
1718.00
1713.00
1728.00
1712.00
1713.00
1713.00
1714.00
1713.00
1712.00
1711.00
1705.00
1705.00
1707.00
1709.00
1712.00
1714.00
1725.00
1725.00
1729.00
1731.00
1735.00
1731.00
1734.00
1739.00
1739.00
1737.00
1738.00
1731.00
1721.00
1721.00
1726.00
1724.00
1722.00
1725.00
1725.00
1727.00
1724.00
1735.00
1733.00
1731.00
1730.00
1725.00
1719.00
1712.00
1703.00
1698.00
1697.00
1695.00
1699.00
1702.00
1700.00
1709.00
1713.00
1718.00
1721.00
1717.00
1712.00
1707.00
1703.00
1707.00
1703.00
1697.00
1695.00
1694.00
1695.00
1683.00
1680.00
1680.00
1680.00
1683.00
1685.00
1691.00
1696.00
1707.00
1707.00
1711.00
1718.00
1726.00
1726.00
1718.00
1713.00
1711.00
1697.00
1695.00
1697.00
1695.00
1695.00
1695.00
1693.00
1686.00
1685.00
1687.00
1692.00
1699.00
1712.00
1716.00
1722.00
1718.00
1718.00
1718.00
1715.00
1712.00
1699.00
1703.00
1695.00
1705.00
1706.00
1725.00
1738.00
1743.00
1748.00
1751.00
1760.00
1757.00
1759.00
1757.00
1753.00
1747.00
1747.00
1746.00
1752.00
1750.00
1754.00
1752.00
1751.00
1758.00
1765.00
1769.00
1765.00
1766.00
1760.00
1759.00
1755.00
1754.00
1753.00
1753.00
1748.00
1744.00
1744.00
1734.00
1728.00
1723.00
1717.00
1716.00
1715.00
1712.00
1712.00
1712.00
1710.00
1708.00
1706.00
1699.00
1697.00
1698.00
1705.00
1709.00
1712.00
1712.00
1712.00
1707.00
1698.00
1692.00
1680.00
1675.00
1669.00
1666.00
1664.00
1664.00
1665.00
1674.00
1680.00
1688.00
1702.00
1709.00
1711.00
1715.00
1722.00
1729.00
1737.00
1742.00
1744.00
1741.00
1739.00
1738.00
1733.00
1732.00
1730.00
1725.00
1719.00
1712.00
1709.00
1703.00
1709.00
1714.00
1718.00
1725.00
1730.00
1733.00
1727.00
1727.00
1726.00
1726.00
1724.00
1723.00
1723.00
1725.00
1718.00
1717.00
1714.00
1714.00
1712.00
1712.00
1714.00
1722.00
1719.00
1722.00
1722.00
1717.00
1717.00
1713.00
1713.00
1711.00
1709.00
1708.00
1708.00
1710.00
1707.00
1703.00
1707.00
1711.00
1714.00
1725.00
1734.00
1737.00
1735.00
1735.00
1728.00
1716.00
1726.00
1699.00
1690.00
1685.00
1681.00
1690.00
1697.00
1702.00
1701.00
1703.00
1706.00
1711.00
1715.00
1723.00
1727.00
1731.00
1738.00
1740.00
1742.00
1744.00
1743.00
1734.00
1733.00
1728.00
1728.00
1726.00
1723.00
1724.00
1725.00
1728.00
1730.00
1729.00
1731.00
1740.00
1745.00
1744.00
1744.00
1743.00
1731.00
1731.00
1725.00
1726.00
1723.00
1718.00
1714.00
1717.00
1731.00
1735.00
1738.00
1733.00
1737.00
1730.00
1727.00
1725.00
1725.00
1714.00
1713.00
1716.00
1713.00
1712.00
1713.00
1710.00
1709.00
1707.00
1705.00
1703.00
1706.00
1712.00
1712.00
1712.00
1712.00
1709.00
1699.00
1699.00
1699.00
1710.00
1714.00
1712.00
1719.00
1726.00
1726.00
1719.00
1714.00
1711.00
1702.00
1696.00
1695.00
1691.00
1698.00
1702.00
1701.00
1703.00
1699.00
1701.00
1708.00
1706.00
1709.00
1709.00
1710.00
1712.00
1715.00
1719.00
1721.00
1723.00
1722.00
1728.00
1728.00
1731.00
1730.00
1733.00
1725.00
1729.00
1727.00
1726.00
1723.00
1723.00
1724.00
1724.00
1723.00
1730.00
1729.00
1724.00
1728.00
1728.00
1729.00
1733.00
1739.00
1736.00
1732.00
1733.00
1728.00
1727.00
1727.00
1725.00
1719.00
1718.00
1721.00
1721.00
1720.00
1730.00
1728.00
1727.00
1725.00
1718.00
1712.00
1712.00
1703.00
1702.00
1699.00
1707.00
1715.00
1719.00
1726.00
1727.00
1726.00
1726.00
1725.00
1726.00
1725.00
1724.00
1729.00
1731.00
1728.00
1728.00
1729.00
1727.00
1722.00
1716.00
1712.00
1706.00
1714.00
1694.00
1691.00
1690.00
1694.00
1703.00
1709.00
1711.00
1717.00
1720.00
1718.00
1718.00
1725.00
1719.00
1712.00
1712.00
1711.00
1711.00
1708.00
1709.00
1705.00
1702.00
1693.00
1687.00
1687.00
1689.00
1697.00
1702.00
1710.00
1714.00
1711.00
1707.00
1709.00
1704.00
1699.00
1698.00
1698.00
1701.00
1703.00
1703.00
1705.00
1705.00
1705.00
1701.00
1706.00
1709.00
1712.00
1715.00
1719.00
1717.00
1712.00
1711.00
1710.00
1708.00
1713.00
1725.00
1733.00
1738.00
1747.00
1751.00
1758.00
1758.00
1755.00
1750.00
1747.00
1752.00
1746.00
1745.00
1744.00
1744.00
1743.00
1744.00
1744.00
1743.00
1747.00
1747.00
1754.00
1751.00
1759.00
1762.00
1763.00
1758.00
1749.00
1744.00
1735.00
1739.00
1738.00
1737.00
1735.00
1731.00
1726.00
1721.00
1719.00
1716.00
1717.00
1713.00
1714.00
1712.00
1708.00
1699.00
1695.00
1682.00
1678.00
1680.00
1702.00
1686.00
1681.00
1683.00
1685.00
1690.00
1697.00
1703.00
1709.00
1711.00
1710.00
1701.00
1699.00
1695.00
1691.00
1687.00
1679.00
1675.00
1670.00
1673.00
1679.00
1682.00
1693.00
1701.00
1710.00
1712.00
1712.00
1709.00
1712.00
1711.00
1708.00
1706.00
1701.00
1690.00
1682.00
1680.00
1677.00
1675.00
1677.00
1683.00
1686.00
1694.00
1691.00
1693.00
1699.00
1703.00
1710.00
1710.00
1712.00
1712.00
1717.00
1723.00
1730.00
1738.00
1742.00
1738.00
1734.00
1728.00
1719.00
1718.00
1712.00
1712.00
1714.00
1711.00
1712.00
1712.00
1709.00
1702.00
1706.00
1707.00
1703.00
1709.00
1714.00
1719.00
1722.00
1722.00
1723.00
1719.00
1721.00
1723.00
1724.00
1726.00
1723.00
1721.00
1724.00
1722.00
1718.00
1718.00
1712.00
1706.00
1702.00
1698.00
1696.00
1698.00
1699.00
1703.00
1703.00
1701.00
1698.00
1695.00
1698.00
1701.00
1696.00
1693.00
1695.00
1693.00
1689.00
1693.00
1697.00
1701.00
1697.00
1705.00
1705.00
1701.00
1696.00
1693.00
1682.00
1680.00
1677.00
1678.00
1678.00
1680.00
1683.00
1683.00
1683.00
1675.00
1674.00
1670.00
1677.00
1671.00
1675.00
1680.00
1680.00
1683.00
1683.00
1680.00
1678.00
1677.00
1679.00
1680.00
1686.00
1691.00
1700.00
1699.00
1701.00
1702.00
1698.00
1696.00
1697.00
1691.00
1691.00
1689.00
1692.00
1692.00
1693.00
1700.00
1723.00
1702.00
1702.00
1705.00
1703.00
1712.00
1714.00
1722.00
1722.00
1728.00
1730.00
1734.00
1733.00
1757.00
1744.00
1745.00
1750.00
1751.00
1754.00
1747.00
1744.00
1744.00
1734.00
1735.00
1738.00
1738.00
1740.00
1735.00
1733.00
1738.00
1742.00
1746.00
1755.00
1755.00
1755.00
1754.00
1745.00
1747.00
1744.00
1735.00
1730.00
1726.00
1718.00
1723.00
1719.00
1727.00
1729.00
1724.00
1721.00
1719.00
1721.00
1742.00
1730.00
1728.00
1729.00
1725.00
1724.00
1712.00
1712.00
1710.00
1711.00
1701.00
1701.00
1701.00
1699.00
1699.00
1707.00
1707.00
1707.00
1706.00
1703.00
1696.00
1699.00
1698.00
1693.00
1696.00
1698.00
1700.00
1702.00
1698.00
1695.00
1695.00
1695.00
1689.00
1691.00
1693.00
1697.00
1699.00
1702.00
1710.00
1707.00
1711.00
1708.00
1706.00
1705.00
1698.00
1698.00
1699.00
1701.00
1701.00
1696.00
1685.00
1689.00
1686.00
1685.00
1699.00
1705.00
1711.00
1719.00
1728.00
1736.00
1744.00
1747.00
1754.00
1751.00
1751.00
1749.00
1744.00
1744.00
1739.00
1735.00
1727.00
1718.00
1712.00
1712.00
1712.00
1712.00
1718.00
1725.00
1727.00
1725.00
1725.00
1728.00
1730.00
1744.00
1752.00
1759.00
1765.00
1773.00
1770.00
1758.00
1749.00
1744.00
1749.00
1726.00
1719.00
1712.00
1707.00
1703.00
1696.00
1691.00
1689.00
1695.00
1702.00
1712.00
1712.00
1706.00
1703.00
1703.00
1697.00
1699.00
1697.00
1698.00
1701.00
1707.00
1712.00
1712.00
1715.00
1719.00
1723.00
1722.00
1722.00
1718.00
1716.00
1723.00
1726.00
1729.00
1731.00
1739.00
1743.00
1743.00
1741.00
1733.00
1730.00
1727.00
1727.00
1725.00
1725.00
1718.00
1712.00
1711.00
1714.00
1714.00
1715.00
1715.00
1715.00
1715.00
1713.00
1710.00
1706.00
1710.00
1704.00
1695.00
1689.00
1693.00
1685.00
1682.00
1683.00
1690.00
1696.00
1695.00
1696.00
1703.00
1712.00
1712.00
1712.00
1712.00
1713.00
1715.00
1711.00
1711.00
1711.00
1711.00
1712.00
1716.00
1727.00
1730.00
1738.00
1744.00
1747.00
1750.00
1747.00
1746.00
1742.00
1731.00
1729.00
1726.00
1715.00
1714.00
1712.00
1711.00
1711.00
1728.00
1715.00
1721.00
1728.00
1729.00
1735.00
1737.00
1742.00
1732.00
1733.00
1727.00
1722.00
1714.00
1711.00
1707.00
1707.00
1705.00
1706.00
1707.00
1712.00
1712.00
1712.00
1711.00
1715.00
1715.00
1714.00
1712.00
1709.00
1712.00
1712.00
1715.00
1712.00
1717.00
1718.00
1722.00
1713.00
1715.00
1714.00
1709.00
1710.00
1712.00
1713.00
1714.00
1722.00
1729.00
1734.00
1739.00
1741.00
1739.00
1741.00
1741.00
1740.00
1739.00
1738.00
1734.00
1730.00
1722.00
1717.00
1712.00
1708.00
1710.00
1712.00
1712.00
1712.00
1711.00
1709.00
1712.00
1716.00
1715.00
1716.00
1717.00
1718.00
1717.00
1720.00
1723.00
1730.00
1735.00
1738.00
1730.00
1725.00
1715.00
1712.00
1713.00
1716.00
1719.00
1715.00
1714.00
1712.00
1712.00
1712.00
1709.00
1709.00
1707.00
1712.00
1715.00
1717.00
1718.00
1723.00
1723.00
1727.00
1732.00
1728.00
1727.00
1717.00
1712.00
1712.00
1709.00
1707.00
1703.00
1697.00
1696.00
1697.00
1703.00
1712.00
1719.00
1725.00
1730.00
1730.00
1731.00
1729.00
1735.00
1733.00
1737.00
1737.00
1731.00
1734.00
1733.00
1729.00
1726.00
1728.00
1723.00
1721.00
1718.00
1719.00
1719.00
1719.00
1715.00
1712.00
1710.00
1706.00
1711.00
1712.00
1713.00
1723.00
1725.00
1724.00
1728.00
1727.00
1722.00
1722.00
1721.00
1715.00
1713.00
1713.00
1707.00
1702.00
1698.00
1695.00
1691.00
1685.00
1694.00
1702.00
1713.00
1718.00
1726.00
1728.00
1730.00
1730.00
1727.00
1727.00
1722.00
1712.00
1706.00
1699.00
1693.00
1694.00
1702.00
1712.00
1710.00
1707.00
1708.00
1712.00
1714.00
1719.00
1726.00
1725.00
1725.00
1721.00
1721.00
1727.00
1729.00
1726.00
1726.00
1722.00
1717.00
1716.00
1715.00
1723.00
1726.00
1729.00
1734.00
1737.00
1737.00
1737.00
1738.00
1738.00
1738.00
1741.00
1744.00
1746.00
1750.00
1744.00
1743.00
1740.00
1742.00
1738.00
1737.00
1731.00
1725.00
1726.00
1734.00
1742.00
1744.00
1744.00
1745.00
1745.00
1744.00
1744.00
1739.00
1734.00
1721.00
1712.00
1709.00
1706.00
1705.00
1706.00
1699.00
1698.00
1695.00
1690.00
1696.00
1695.00
1699.00
1710.00
1712.00
1718.00
1718.00
1713.00
1711.00
1708.00
1709.00
1709.00
1703.00
1702.00
1701.00
1695.00
1696.00
1683.00
1685.00
1680.00
1681.00
1685.00
1692.00
1701.00
1712.00
1713.00
1719.00
1718.00
1714.00
1709.00
1697.00
1695.00
1697.00
1695.00
1699.00
1703.00
1706.00
1699.00
1698.00
1705.00
1710.00
1712.00
1714.00
1719.00
1722.00
1728.00
1729.00
1729.00
1726.00
1719.00
1717.00
1712.00
1712.00
1712.00
1714.00
1712.00
1707.00
1713.00
1714.00
1719.00
1727.00
1731.00
1736.00
1739.00
1744.00
1741.00
1735.00
1730.00
1728.00
1728.00
1732.00
1730.00
1728.00
1728.00
1722.00
1719.00
1718.00
1717.00
1710.00
1707.00
1705.00
1702.00
1705.00
1698.00
1703.00
1707.00
1711.00
1709.00
1705.00
1702.00
1697.00
1696.00
1703.00
1708.00
1705.00
1723.00
1706.00
1701.00
1698.00
1690.00
1684.00
1685.00
1690.00
1697.00
1706.00
1709.00
1712.00
1712.00
1712.00
1711.00
1712.00
1706.00
1706.00
1707.00
1707.00
1703.00
1707.00
1709.00
1707.00
1710.00
1713.00
1722.00
1725.00
1734.00
1742.00
1744.00
1744.00
1743.00
1747.00
1746.00
1745.00
1739.00
1738.00
1729.00
1723.00
1715.00
1711.00
1706.00
1702.00
1695.00
1698.00
1699.00
1707.00
1718.00
1727.00
1735.00
1743.00
1744.00
1743.00
1744.00
1743.00
1735.00
1729.00
1726.00
1723.00
1719.00
1718.00
1722.00
1719.00
1721.00
1719.00
1723.00
1724.00
1723.00
1735.00
1745.00
1746.00
1749.00
1744.00
1744.00
1741.00
1734.00
1727.00
1715.00
1712.00
1699.00
1699.00
1691.00
1688.00
1686.00
1685.00
1690.00
1697.00
1711.00
1715.00
1719.00
1721.00
1715.00
1718.00
1715.00
1713.00
1712.00
1712.00
1712.00
1712.00
1711.00
1699.00
1691.00
1689.00
1687.00
1695.00
1701.00
1706.00
1714.00
1718.00
1724.00
1730.00
1724.00
1718.00
1712.00
1710.00
1702.00
1697.00
1697.00
1696.00
1697.00
1699.00
1703.00
1706.00
1711.00
1712.00
1716.00
1721.00
1725.00
1730.00
1728.00
1728.00
1728.00
1723.00
1713.00
1709.00
1698.00
1695.00
1693.00
1687.00
1691.00
1693.00
1694.00
1697.00
1699.00
1700.00
1703.00
1703.00
1703.00
1699.00
1695.00
1687.00
1693.00
1702.00
1702.00
1710.00
1713.00
1714.00
1718.00
1719.00
1719.00
1725.00
1727.00
1726.00
1723.00
1725.00
1725.00
1725.00
1726.00
1729.00
1731.00
1731.00
1734.00
1732.00
1727.00
1723.00
1719.00
1721.00
1719.00
1715.00
1721.00
1719.00
1722.00
1722.00
1719.00
1718.00
1718.00
1723.00
1722.00
1726.00
1723.00
1725.00
1724.00
1724.00
1719.00
1716.00
1714.00
1713.00
1712.00
1706.00
1700.00
1694.00
1692.00
1683.00
1680.00
1681.00
1687.00
1702.00
1711.00
1712.00
1713.00
1718.00
1716.00
1719.00
1716.00
1709.00
1699.00
1691.00
1693.00
1690.00
1693.00
1695.00
1696.00
1693.00
1691.00
1691.00
1694.00
1703.00
1712.00
1712.00
1713.00
1710.00
1701.00
1690.00
1675.00
1677.00
1667.00
1669.00
1680.00
1680.00
1683.00
1690.00
1700.00
1712.00
1719.00
1724.00
1725.00
1727.00
1719.00
1716.00
1713.00
1723.00
1725.00
1723.00
1727.00
1722.00
1727.00
1730.00
1727.00
1730.00
1747.00
1743.00
1741.00
1734.00
1731.00
1728.00
1727.00
1728.00
1730.00
1734.00
1739.00
1743.00
1744.00
1744.00
1747.00
1744.00
1737.00
1733.00
1731.00
1726.00
1721.00
1719.00
1716.00
1717.00
1718.00
1723.00
1727.00
1733.00
1732.00
1735.00
1739.00
1735.00
1728.00
1727.00
1723.00
1713.00
1712.00
1707.00
1701.00
1701.00
1702.00
1699.00
1697.00
1689.00
1678.00
1674.00
1673.00
1673.00
1674.00
1680.00
1680.00
1686.00
1680.00
1680.00
1681.00
1681.00
1683.00
1679.00
1680.00
1680.00
1680.00
1680.00
1680.00
1681.00
1682.00
1696.00
1683.00
1689.00
1690.00
1695.00
1702.00
1710.00
1712.00
1712.00
1713.00
1713.00
1714.00
1712.00
1711.00
1712.00
1709.00
1702.00
1694.00
1687.00
1685.00
1690.00
1698.00
1706.00
1707.00
1708.00
1710.00
1712.00
1722.00
1727.00
1727.00
1735.00
1737.00
1744.00
1748.00
1747.00
1755.00
1757.00
1755.00
1750.00
1745.00
1742.00
1735.00
1729.00
1726.00
1722.00
1724.00
1722.00
1716.00
1718.00
1718.00
1718.00
1712.00
1711.00
1711.00
1705.00
1706.00
1699.00
1695.00
1693.00
1693.00
1687.00
1690.00
1688.00
1690.00
1694.00
1697.00
1696.00
1697.00
1703.00
1701.00
1701.00
1702.00
1703.00
1709.00
1709.00
1707.00
1712.00
1715.00
1711.00
1712.00
1711.00
1709.00
1702.00
1701.00
1713.00
1697.00
1699.00
1706.00
1706.00
1703.00
1697.00
1687.00
1682.00
1680.00
1677.00
1673.00
1678.00
1681.00
1692.00
1694.00
1716.00
1698.00
1707.00
1709.00
1712.00
1712.00
1723.00
1726.00
1719.00
1721.00
1718.00
1712.00
1711.00
1710.00
1710.00
1712.00
1715.00
1719.00
1727.00
1724.00
1726.00
1728.00
1728.00
1731.00
1731.00
1737.00
1724.00
1717.00
1710.00
1701.00
1695.00
1693.00
1695.00
1699.00
1699.00
1701.00
1712.00
1714.00
1717.00
1720.00
1725.00
1719.00
1719.00
1715.00
1722.00
1718.00
1719.00
1718.00
1717.00
1715.00
1716.00
1715.00
1717.00
1723.00
1728.00
1722.00
1719.00
1722.00
1717.00
1715.00
1717.00
1724.00
1728.00
1735.00
1739.00
1735.00
1741.00
1738.00
1737.00
1733.00
1726.00
1718.00
1714.00
1711.00
1705.00
1695.00
1686.00
1682.00
1676.00
1666.00
1665.00
1664.00
1665.00
1670.00
1674.00
1680.00
1685.00
1695.00
1708.00
1712.00
1715.00
1712.00
1703.00
1701.00
1695.00
1687.00
1680.00
1682.00
1680.00
1686.00
1690.00
1696.00
1703.00
1709.00
1712.00
1715.00
1712.00
1712.00
1714.00
1712.00
1714.00
1715.00
1722.00
1723.00
1723.00
1722.00
1723.00
1721.00
1723.00
1726.00
1726.00
1728.00
1729.00
1729.00
1733.00
1733.00
1737.00
1732.00
1734.00
1735.00
1733.00
1738.00
1734.00
1731.00
1730.00
1728.00
1728.00
1726.00
1722.00
1719.00
1718.00
1713.00
1723.00
1712.00
1712.00
1710.00
1702.00
1695.00
1696.00
1694.00
1696.00
1697.00
1699.00
1702.00
1700.00
1691.00
1684.00
1682.00
1680.00
1682.00
1693.00
1696.00
1707.00
1712.00
1715.00
1725.00
1727.00
1728.00
1719.00
1722.00
1718.00
1715.00
1713.00
1714.00
1714.00
1711.00
1701.00
1695.00
1683.00
1680.00
1683.00
1681.00
1696.00
1712.00
1723.00
1729.00
1731.00
1739.00
1742.00
1743.00
1739.00
1750.00
1730.00
1717.00
1712.00
1707.00
1701.00
1699.00
1700.00
1711.00
1718.00
1731.00
1743.00
1746.00
1749.00
1751.00
1751.00
1744.00
1737.00
1729.00
1726.00
1717.00
1712.00
1712.00
1705.00
1697.00
1697.00
1695.00
1707.00
1712.00
1712.00
1719.00
1722.00
1726.00
1721.00
1719.00
1717.00
1711.00
1711.00
1702.00
1699.00
1699.00
1696.00
1695.00
1683.00
1677.00
1671.00
1666.00
1665.00
1669.00
1675.00
1680.00
1685.00
1692.00
1697.00
1707.00
1707.00
1710.00
1712.00
1713.00
1713.00
1712.00
1710.00
1711.00
1711.00
1712.00
1711.00
1707.00
1702.00
1699.00
1702.00
1701.00
1702.00
1711.00
1713.00
1721.00
1721.00
1723.00
1729.00
1733.00
1735.00
1739.00
1742.00
1742.00
1735.00
1735.00
1730.00
1721.00
1717.00
1713.00
1712.00
1714.00
1715.00
1713.00
1712.00
1712.00
1711.00
1706.00
1701.00
1701.00
1702.00
1701.00
1694.00
1692.00
1690.00
1685.00
1673.00
1666.00
1663.00
1657.00
1646.00
1656.00
1668.00
1675.00
1681.00
1689.00
1691.00
1696.00
1696.00
1699.00
1703.00
1703.00
1708.00
1711.00
1712.00
1716.00
1717.00
1715.00
1714.00
1712.00
1727.00
1712.00
1715.00
1716.00
1723.00
1727.00
1726.00
1721.00
1717.00
1712.00
1712.00
1710.00
1703.00
1702.00
1701.00
1701.00
1698.00
1695.00
1696.00
1693.00
1691.00
1696.00
1695.00
1702.00
1709.00
1712.00
1712.00
1715.00
1707.00
1703.00
1696.00
1696.00
1693.00
1691.00
1686.00
1683.00
1682.00
1684.00
1689.00
1695.00
1702.00
1710.00
1712.00
1712.00
1713.00
1712.00
1708.00
1707.00
1707.00
1711.00
1703.00
1697.00
1698.00
1698.00
1702.00
1711.00
1718.00
1728.00
1731.00
1727.00
1722.00
1717.00
1712.00
1705.00
1710.00
1712.00
1711.00
1695.00
1712.00
1707.00
1701.00
1694.00
1694.00
1698.00
1707.00
1713.00
1723.00
1732.00
1738.00
1744.00
1749.00
1751.00
1753.00
1750.00
1745.00
1744.00
1743.00
1735.00
1732.00
1729.00
1728.00
1726.00
1719.00
1726.00
1712.00
1709.00
1699.00
1698.00
1692.00
1693.00
1692.00
1696.00
1703.00
1707.00
1709.00
1709.00
1712.00
1709.00
1712.00
1712.00
1711.00
1713.00
1714.00
1714.00
1715.00
1715.00
1713.00
1710.00
1694.00
1680.00
1673.00
1664.00
1665.00
1671.00
1680.00
1691.00
1709.00
1699.00
1699.00
1703.00
1705.00
1702.00
1706.00
1698.00
1703.00
1703.00
1703.00
1695.00
1699.00
1699.00
1703.00
1705.00
1708.00
1712.00
1713.00
1717.00
1716.00
1718.00
1717.00
1714.00
1712.00
1707.00
1710.00
1703.00
1705.00
1703.00
1699.00
1699.00
1703.00
1703.00
1708.00
1712.00
1712.00
1715.00
1722.00
1725.00
1725.00
1726.00
1723.00
1727.00
1728.00
1728.00
1727.00
1730.00
1727.00
1725.00
1721.00
1717.00
1712.00
1712.00
1711.00
1712.00
1721.00
1733.00
1741.00
1744.00
1743.00
1739.00
1728.00
1714.00
1701.00
1697.00
1693.00
1691.00
1691.00
1702.00
1706.00
1712.00
1712.00
1710.00
1714.00
1717.00
1719.00
1719.00
1717.00
1718.00
1718.00
1714.00
1712.00
1712.00
1710.00
1707.00
1702.00
1695.00
1693.00
1696.00
1699.00
1701.00
1699.00
1700.00
1705.00
1706.00
1711.00
1712.00
1724.00
1726.00
1725.00
1725.00
1725.00
1723.00
1718.00
1709.00
1702.00
1697.00
1696.00
1694.00
1693.00
1695.00
1699.00
1703.00
1706.00
1708.00
1711.00
1707.00
1708.00
1707.00
1710.00
1705.00
1709.00
1703.00
1702.00
1695.00
1697.00
1697.00
1715.00
1699.00
1696.00
1697.00
1699.00
1694.00
1698.00
1695.00
1701.00
1694.00
1693.00
1690.00
1690.00
1685.00
1690.00
1695.00
1703.00
1706.00
1705.00
1707.00
1705.00
1705.00
1701.00
1701.00
1696.00
1689.00
1687.00
1691.00
1689.00
1693.00
1687.00
1698.00
1704.00
1709.00
1712.00
1718.00
1724.00
1730.00
1734.00
1741.00
1737.00
1730.00
1722.00
1722.00
1719.00
1715.00
1715.00
1712.00
1712.00
1715.00
1725.00
1726.00
1722.00
1719.00
1713.00
1712.00
1695.00
1703.00
1697.00
1695.00
1692.00
1693.00
1689.00
1686.00
1685.00
1691.00
1694.00
1693.00
1690.00
1689.00
1685.00
1681.00
1680.00
1680.00
1680.00
1682.00
1685.00
1686.00
1692.00
1695.00
1702.00
1699.00
1705.00
1706.00
1705.00
1706.00
1711.00
1712.00
1714.00
1713.00
1722.00
1722.00
1718.00
1715.00
1713.00
1713.00
1712.00
1711.00
1711.00
1711.00
1712.00
1711.00
1712.00
1712.00
1710.00
1712.00
1714.00
1715.00
1713.00
1718.00
1719.00
1722.00
1722.00
1728.00
1729.00
1725.00
1711.00
1714.00
1702.00
1692.00
1681.00
1680.00
1673.00
1671.00
1678.00
1682.00
1690.00
1700.00
1711.00
1719.00
1722.00
1722.00
1719.00
1712.00
1703.00
1696.00
1694.00
1699.00
1707.00
1707.00
1713.00
1712.00
1712.00
1714.00
1714.00
1714.00
1719.00
1716.00
1718.00
1717.00
1718.00
1725.00
1726.00
1723.00
1728.00
1729.00
1726.00
1722.00
1719.00
1718.00
1716.00
1719.00
1725.00
1725.00
1735.00
1743.00
1744.00
1750.00
1750.00
1751.00
1751.00
1748.00
1745.00
1744.00
1739.00
1728.00
1724.00
1719.00
1712.00
1707.00
1703.00
1700.00
1699.00
1697.00
1700.00
1705.00
1709.00
1714.00
1712.00
1712.00
1708.00
1698.00
1699.00
1696.00
1693.00
1699.00
1703.00
1712.00
1713.00
1718.00
1723.00
1711.00
1722.00
1719.00
1716.00
1712.00
1712.00
1712.00
1712.00
1709.00
1703.00
1705.00
1700.00
1695.00
1695.00
1691.00
1690.00
1687.00
1687.00
1685.00
1683.00
1686.00
1682.00
1680.00
1680.00
1681.00
1690.00
1679.00
1697.00
1701.00
1701.00
1699.00
1699.00
1698.00
1694.00
1692.00
1691.00
1698.00
1701.00
1711.00
1712.00
1715.00
1718.00
1719.00
1714.00
1706.00
1712.00
1712.00
1713.00
1713.00
1717.00
1719.00
1721.00
1728.00
1730.00
1729.00
1737.00
1739.00
1738.00
1742.00
1741.00
1735.00
1738.00
1739.00
1741.00
1745.00
1746.00
1748.00
1747.00
1743.00
1739.00
1730.00
1723.00
1717.00
1712.00
1713.00
1712.00
1714.00
1713.00
1713.00
1717.00
1723.00
1723.00
1726.00
1721.00
1715.00
1713.00
1712.00
1712.00
1711.00
1711.00
1712.00
1710.00
1707.00
1707.00
1703.00
1697.00
1690.00
1683.00
1680.00
1677.00
1674.00
1675.00
1680.00
1683.00
1687.00
1694.00
1702.00
1701.00
1703.00
1710.00
1712.00
1711.00
1710.00
1727.00
1712.00
1713.00
1716.00
1722.00
1727.00
1731.00
1738.00
1746.00
1754.00
1746.00
1744.00
1742.00
1739.00
1737.00
1746.00
1734.00
1733.00
1728.00
1724.00
1723.00
1718.00
1714.00
1714.00
1712.00
1712.00
1712.00
1712.00
1712.00
1712.00
1712.00
1712.00
1712.00
1711.00
1711.00
1710.00
1710.00
1701.00
1699.00
1697.00
1694.00
1686.00
1683.00
1680.00
1682.00
1683.00
1693.00
1699.00
1701.00
1702.00
1699.00
1707.00
1708.00
1708.00
1706.00
1708.00
1703.00
1705.00
1703.00
1707.00
1706.00
1706.00
1706.00
1712.00
1712.00
1712.00
1714.00
1713.00
1712.00
1711.00
1709.00
1703.00
1705.00
1703.00
1699.00
1699.00
1707.00
1710.00
1711.00
1711.00
1712.00
1713.00
1718.00
1724.00
1730.00
1728.00
1722.00
1717.00
1712.00
1710.00
1707.00
1707.00
1712.00
1713.00
1715.00
1717.00
1718.00
1717.00
1719.00
1717.00
1723.00
1718.00
1719.00
1713.00
1706.00
1695.00
1680.00
1675.00
1670.00
1662.00
1669.00
1669.00
1680.00
1684.00
1694.00
1709.00
1718.00
1727.00
1730.00
1739.00
1727.00
1728.00
1725.00
1723.00
1718.00
1719.00
1721.00
1722.00
1718.00
1728.00
1715.00
1723.00
1729.00
1734.00
1742.00
1744.00
1747.00
1744.00
1743.00
1734.00
1727.00
1715.00
1712.00
1712.00
1713.00
1713.00
1713.00
1712.00
1712.00
1712.00
1710.00
1706.00
1706.00
1708.00
1700.00
1698.00
1699.00
1709.00
1711.00
1715.00
1722.00
1725.00
1727.00
1731.00
1730.00
1728.00
1728.00
1727.00
1727.00
1722.00
1724.00
1722.00
1730.00
1734.00
1734.00
1729.00
1726.00
1723.00
1712.00
1712.00
1710.00
1703.00
1698.00
1698.00
1698.00
1702.00
1704.00
1703.00
1700.00
1695.00
1694.00
1685.00
1682.00
1685.00
1687.00
1687.00
1685.00
1686.00
1685.00
1686.00
1693.00
1697.00
1695.00
1693.00
1696.00
1693.00
1690.00
1686.00
1684.00
1685.00
1686.00
1693.00
1705.00
1707.00
1712.00
1713.00
1718.00
1723.00
1722.00
1714.00
1709.00
1693.00
1680.00
1679.00
1678.00
1679.00
1684.00
1694.00
1705.00
1712.00
1718.00
1729.00
1737.00
1738.00
1735.00
1729.00
1728.00
1723.00
1721.00
1717.00
1717.00
1713.00
1712.00
1710.00
1712.00
1709.00
1711.00
1707.00
1707.00
1703.00
1701.00
1707.00
1709.00
1712.00
1713.00
1711.00
1713.00
1717.00
1718.00
1715.00
1712.00
1707.00
1698.00
1694.00
1683.00
1680.00
1680.00
1678.00
1679.00
1680.00
1679.00
1680.00
1684.00
1691.00
1693.00
1705.00
1703.00
1707.00
1711.00
1709.00
1712.00
1712.00
1712.00
1712.00
1712.00
1712.00
1711.00
1712.00
1707.00
1707.00
1700.00
1704.00
1703.00
1712.00
1717.00
1728.00
1737.00
1744.00
1743.00
1737.00
1734.00
1730.00
1728.00
1727.00
1725.00
1730.00
1727.00
1723.00
1719.00
1717.00
1711.00
1712.00
1712.00
1712.00
1712.00
1719.00
1719.00
1722.00
1722.00
1721.00
1707.00
1702.00
1692.00
1687.00
1691.00
1693.00
1698.00
1706.00
1701.00
1707.00
1710.00
1715.00
1724.00
1728.00
1731.00
1735.00
1734.00
1730.00
1725.00
1717.00
1715.00
1713.00
1711.00
1712.00
1707.00
1703.00
1708.00
1710.00
1706.00
1710.00
1711.00
1725.00
1713.00
1716.00
1723.00
1722.00
1727.00
1727.00
1721.00
1721.00
1715.00
1712.00
1711.00
1705.00
1703.00
1698.00
1697.00
1695.00
1699.00
1701.00
1705.00
1707.00
1712.00
1711.00
1711.00
1721.00
1721.00
1715.00
1713.00
1710.00
1712.00
1706.00
1702.00
1705.00
1703.00
1706.00
1703.00
1701.00
1699.00
1697.00
1696.00
1695.00
1697.00
1699.00
1699.00
1702.00
1703.00
1706.00
1702.00
1698.00
1693.00
1695.00
1695.00
1695.00
1697.00
1707.00
1708.00
1711.00
1712.00
1715.00
1712.00
1713.00
1717.00
1723.00
1727.00
1731.00
1738.00
1743.00
1742.00
1737.00
1731.00
1725.00
1715.00
1712.00
1707.00
1712.00
1709.00
1706.00
1702.00
1699.00
1697.00
1695.00
1695.00
1694.00
1691.00
1690.00
1691.00
1684.00
1682.00
1682.00
1683.00
1685.00
1687.00
1682.00
1678.00
1669.00
1667.00
1675.00
1677.00
1679.00
1682.00
1686.00
1687.00
1692.00
1697.00
1703.00
1711.00
1714.00
1715.00
1718.00
1719.00
1715.00
1712.00
1711.00
1709.00
1706.00
1701.00
1696.00
1693.00
1686.00
1687.00
1690.00
1698.00
1705.00
1715.00
1725.00
1731.00
1727.00
1727.00
1719.00
1713.00
1709.00
1703.00
1707.00
1711.00
1695.00
1710.00
1712.00
1717.00
1717.00
1725.00
1729.00
1729.00
1728.00
1727.00
1715.00
1712.00
1706.00
1692.00
1681.00
1675.00
1665.00
1664.00
1662.00
1665.00
1680.00
1693.00
1701.00
1707.00
1712.00
1714.00
1717.00
1727.00
1739.00
1741.00
1744.00
1739.00
1731.00
1722.00
1713.00
1712.00
1712.00
1712.00
1712.00
1714.00
1713.00
1710.00
1711.00
1710.00
1703.00
1703.00
1703.00
1699.00
1707.00
1702.00
1703.00
1703.00
1703.00
1697.00
1696.00
1691.00
1689.00
1693.00
1701.00
1707.00
1712.00
1712.00
1712.00
1709.00
1699.00
1697.00
1697.00
1702.00
1700.00
1697.00
1697.00
1691.00
1693.00
1691.00
1695.00
1697.00
1698.00
1696.00
1697.00
1695.00
1690.00
1692.00
1692.00
1698.00
1695.00
1697.00
1698.00
1702.00
1705.00
1707.00
1707.00
1707.00
1702.00
1701.00
1697.00
1696.00
1695.00
1694.00
1690.00
1682.00
1680.00
1680.00
1680.00
1683.00
1682.00
1692.00
1692.00
1699.00
1711.00
1713.00
1721.00
1722.00
1723.00
1723.00
1723.00
1715.00
1715.00
1713.00
1712.00
1709.00
1702.00
1697.00
1695.00
1698.00
1699.00
1700.00
1701.00
1701.00
1703.00
1710.00
1715.00
1718.00
1726.00
1727.00
1728.00
1728.00
1724.00
1723.00
1722.00
1723.00
1718.00
1715.00
1711.00
1703.00
1694.00
1685.00
1680.00
1677.00
1675.00
1676.00
1675.00
1680.00
1680.00
1678.00
1678.00
1676.00
1674.00
1674.00
1680.00
1680.00
1680.00
1682.00
1681.00
1686.00
1694.00
1702.00
1709.00
1712.00
1714.00
1713.00
1715.00
1714.00
1715.00
1715.00
1713.00
1713.00
1707.00
1695.00
1683.00
1680.00
1680.00
1682.00
1685.00
1686.00
1690.00
1703.00
1712.00
1726.00
1734.00
1743.00
1744.00
1747.00
1744.00
1743.00
1734.00
1727.00
1723.00
1721.00
1718.00
1715.00
1713.00
1714.00
1719.00
1726.00
1730.00
1737.00
1743.00
1744.00
1745.00
1751.00
1747.00
1746.00
1744.00
1730.00
1726.00
1718.00
1710.00
1707.00
1703.00
1705.00
1703.00
1699.00
1697.00
1699.00
1699.00
1703.00
1706.00
1702.00
1703.00
1697.00
1701.00
1703.00
1706.00
1702.00
1698.00
1697.00
1695.00
1699.00
1697.00
1699.00
1699.00
1699.00
1701.00
1702.00
1698.00
1701.00
1700.00
1703.00
1712.00
1712.00
1707.00
1703.00
1706.00
1711.00
1711.00
1712.00
1713.00
1718.00
1717.00
1718.00
1718.00
1719.00
1715.00
1718.00
1712.00
1710.00
1706.00
1705.00
1705.00
1708.00
1711.00
1715.00
1717.00
1718.00
1723.00
1725.00
1719.00
1715.00
1717.00
1714.00
1716.00
1712.00
1711.00
1714.00
1712.00
1710.00
1712.00
1712.00
1712.00
1718.00
1722.00
1723.00
1721.00
1721.00
1718.00
1715.00
1717.00
1718.00
1722.00
1723.00
1727.00
1728.00
1725.00
1722.00
1723.00
1728.00
1729.00
1728.00
1728.00
1728.00
1722.00
1723.00
1712.00
1712.00
1705.00
1690.00
1676.00
1662.00
1652.00
1651.00
1653.00
1661.00
1672.00
1678.00
1679.00
1683.00
1685.00
1690.00
1697.00
1707.00
1712.00
1723.00
1723.00
1725.00
1721.00
1715.00
1716.00
1719.00
1723.00
1723.00
1723.00
1727.00
1723.00
1723.00
1712.00
1715.00
1716.00
1717.00
1718.00
1726.00
1722.00
1728.00
1727.00
1727.00
1727.00
1725.00
1717.00
1730.00
1717.00
1715.00
1714.00
1714.00
1716.00
1716.00
1715.00
1717.00
1719.00
1716.00
1717.00
1722.00
1725.00
1721.00
1711.00
1699.00
1687.00
1683.00
1681.00
1689.00
1696.00
1703.00
1697.00
1694.00
1693.00
1687.00
1687.00
1689.00
1691.00
1699.00
1709.00
1712.00
1713.00
1712.00
1712.00
1714.00
1715.00
1714.00
1715.00
1715.00
1712.00
1712.00
1712.00
1711.00
1708.00
1707.00
1703.00
1697.00
1690.00
1693.00
1696.00
1708.00
1712.00
1715.00
1714.00
1712.00
1712.00
1712.00
1712.00
1713.00
1714.00
1713.00
1715.00
1715.00
1715.00
1718.00
1714.00
1712.00
1712.00
1710.00
1707.00
1707.00
1703.00
1709.00
1712.00
1712.00
1711.00
1713.00
1717.00
1712.00
1717.00
1724.00
1731.00
1738.00
1742.00
1741.00
1740.00
1734.00
1732.00
1729.00
1731.00
1726.00
1728.00
1726.00
1728.00
1718.00
1719.00
1713.00
1712.00
1707.00
1695.00
1686.00
1679.00
1675.00
1677.00
1671.00
1680.00
1684.00
1694.00
1701.00
1706.00
1712.00
1712.00
1717.00
1715.00
1712.00
1707.00
1702.00
1697.00
1691.00
1691.00
1691.00
1691.00
1693.00
1687.00
1690.00
1690.00
1697.00
1703.00
1711.00
1715.00
1715.00
1725.00
1728.00
1728.00
1725.00
1728.00
1723.00
1714.00
1706.00
1696.00
1693.00
1694.00
1701.00
1703.00
1706.00
1709.00
1711.00
1712.00
1717.00
1715.00
1714.00
1712.00
1712.00
1713.00
1715.00
1726.00
1730.00
1733.00
1732.00
1727.00
1725.00
1722.00
1721.00
1717.00
1722.00
1721.00
1726.00
1729.00
1739.00
1743.00
1742.00
1750.00
1760.00
1762.00
1761.00
1757.00
1749.00
1742.00
1730.00
1721.00
1716.00
1713.00
1712.00
1712.00
1709.00
1712.00
1712.00
1714.00
1725.00
1731.00
1737.00
1738.00
1746.00
1727.00
1715.00
1709.00
1702.00
1697.00
1695.00
1699.00
1706.00
1712.00
1713.00
1713.00
1717.00
1714.00
1709.00
1711.00
1712.00
1710.00
1711.00
1712.00
1713.00
1709.00
1710.00
1702.00
1691.00
1680.00
1678.00
1677.00
1680.00
1685.00
1687.00
1693.00
1691.00
1692.00
1695.00
1692.00
1697.00
1695.00
1699.00
1698.00
1702.00
1709.00
1709.00
1711.00
1709.00
1711.00
1712.00
1711.00
1708.00
1703.00
1694.00
1687.00
1682.00
1680.00
1680.00
1681.00
1689.00
1695.00
1691.00
1685.00
1685.00
1681.00
1680.00
1685.00
1687.00
1692.00
1697.00
1702.00
1709.00
1709.00
1709.00
1709.00
1707.00
1712.00
1726.00
1733.00
1743.00
1747.00
1755.00
1754.00
1756.00
1750.00
1745.00
1739.00
1733.00
1726.00
1714.00
1725.00
1706.00
1698.00
1695.00
1696.00
1697.00
1698.00
1702.00
1703.00
1707.00
1711.00
1711.00
1712.00
1713.00
1712.00
1709.00
1712.00
1712.00
1713.00
1712.00
1711.00
1710.00
1705.00
1697.00
1697.00
1697.00
1698.00
1711.00
1719.00
1729.00
1745.00
1750.00
1751.00
1754.00
1748.00
1751.00
1745.00
1741.00
1731.00
1731.00
1728.00
1727.00
1725.00
1725.00
1719.00
1712.00
1702.00
1691.00
1696.00
1698.00
1702.00
1709.00
1711.00
1715.00
1718.00
1713.00
1715.00
1712.00
1709.00
1710.00
1706.00
1702.00
1697.00
1697.00
1696.00
1699.00
1701.00
1703.00
1712.00
1714.00
1715.00
1715.00
1719.00
1723.00
1715.00
1712.00
1710.00
1697.00
1691.00
1685.00
1682.00
1686.00
1685.00
1691.00
1697.00
1700.00
1702.00
1703.00
1706.00
1707.00
1714.00
1715.00
1718.00
1721.00
1717.00
1714.00
1715.00
1712.00
1710.00
1702.00
1696.00
1695.00
1693.00
1690.00
1694.00
1691.00
1689.00
1690.00
1690.00
1699.00
1702.00
1716.00
1724.00
1730.00
1731.00
1738.00
1739.00
1738.00
1744.00
1737.00
1733.00
1727.00
1723.00
1718.00
1714.00
1715.00
1712.00
1712.00
1713.00
1715.00
1728.00
1735.00
1743.00
1746.00
1746.00
1744.00
1733.00
1724.00
1721.00
1722.00
1729.00
1735.00
1746.00
1755.00
1766.00
1766.00
1760.00
1750.00
1744.00
1744.00
1733.00
1731.00
1727.00
1724.00
1717.00
1711.00
1708.00
1699.00
1697.00
1690.00
1691.00
1697.00
1699.00
1700.00
1705.00
1707.00
1711.00
1710.00
1712.00
1712.00
1713.00
1694.00
1711.00
1710.00
1707.00
1702.00
1702.00
1695.00
1691.00
1691.00
1693.00
1697.00
1699.00
1704.00
1706.00
1706.00
1708.00
1708.00
1706.00
1711.00
1714.00
1716.00
1718.00
1724.00
1722.00
1717.00
1712.00
1702.00
1690.00
1682.00
1671.00
1674.00
1680.00
1681.00
1680.00
1680.00
1684.00
1690.00
1701.00
1708.00
1712.00
1718.00
1725.00
1729.00
1729.00
1726.00
1725.00
1723.00
1719.00
1712.00
1713.00
1711.00
1712.00
1712.00
1717.00
1723.00
1725.00
1731.00
1731.00
1731.00
1731.00
1728.00
1726.00
1725.00
1715.00
1712.00
1712.00
1709.00
1710.00
1712.00
1716.00
1715.00
1715.00
1717.00
1712.00
1708.00
1712.00
1715.00
1725.00
1730.00
1739.00
1744.00
1746.00
1753.00
1756.00
1760.00
1754.00
1744.00
1734.00
1727.00
1727.00
1719.00
1716.00
1717.00
1718.00
1715.00
1712.00
1712.00
1709.00
1708.00
1706.00
1708.00
1701.00
1705.00
1702.00
1698.00
1682.00
1679.00
1670.00
1663.00
1663.00
1665.00
1669.00
1670.00
1674.00
1680.00
1689.00
1694.00
1701.00
1705.00
1712.00
1715.00
1721.00
1718.00
1718.00
1725.00
1718.00
1723.00
1725.00
1728.00
1729.00
1723.00
1719.00
1712.00
1710.00
1701.00
1692.00
1690.00
1689.00
1695.00
1697.00
1701.00
1705.00
1706.00
1701.00
1696.00
1697.00
1693.00
1694.00
1694.00
1700.00
1705.00
1707.00
1701.00
1705.00
1702.00
1707.00
1710.00
1714.00
1723.00
1727.00
1730.00
1731.00
1735.00
1733.00
1729.00
1730.00
1719.00
1723.00
1724.00
1719.00
1715.00
1714.00
1711.00
1711.00
1712.00
1710.00
1707.00
1722.00
1709.00
1710.00
1708.00
1715.00
1717.00
1719.00
1717.00
1711.00
1697.00
1689.00
1687.00
1682.00
1683.00
1687.00
1692.00
1693.00
1696.00
1693.00
1699.00
1697.00
1703.00
1708.00
1712.00
1712.00
1713.00
1711.00
1709.00
1706.00
1703.00
1698.00
1695.00
1696.00
1697.00
1695.00
1698.00
1696.00
1695.00
1695.00
1690.00
1696.00
1697.00
1699.00
1701.00
1701.00
1702.00
1706.00
1707.00
1703.00
1696.00
1691.00
1691.00
1687.00
1685.00
1691.00
1696.00
1695.00
1695.00
1705.00
1710.00
1713.00
1723.00
1728.00
1731.00
1733.00
1727.00
1721.00
1715.00
1712.00
1712.00
1712.00
1712.00
1712.00
1713.00
1711.00
1706.00
1702.00
1698.00
1696.00
1698.00
1702.00
1711.00
1712.00
1717.00
1724.00
1727.00
1725.00
1722.00
1715.00
1714.00
1715.00
1713.00
1715.00
1714.00
1713.00
1715.00
1712.00
1711.00
1712.00
1714.00
1715.00
1726.00
1728.00
1733.00
1731.00
1731.00
1726.00
1717.00
1710.00
1702.00
1698.00
1695.00
1695.00
1695.00
1695.00
1697.00
1694.00
1689.00
1689.00
1691.00
1690.00
1688.00
1695.00
1701.00
1707.00
1707.00
1707.00
1702.00
1691.00
1716.00
1682.00
1680.00
1683.00
1703.00
1712.00
1718.00
1738.00
1719.00
1717.00
1724.00
1726.00
1729.00
1731.00
1730.00
1735.00
1739.00
1738.00
1730.00
1725.00
1721.00
1712.00
1714.00
1714.00
1720.00
1717.00
1724.00
1730.00
1729.00
1723.00
1723.00
1718.00
1712.00
1709.00
1706.00
1702.00
1700.00
1701.00
1708.00
1711.00
1712.00
1715.00
1725.00
1731.00
1734.00
1737.00
1729.00
1727.00
1723.00
1721.00
1722.00
1724.00
1726.00
1727.00
1726.00
1725.00
1724.00
1722.00
1718.00
1715.00
1713.00
1712.00
1705.00
1701.00
1702.00
1699.00
1707.00
1710.00
1707.00
1703.00
1701.00
1699.00
1699.00
1701.00
1703.00
1707.00
1707.00
1709.00
1709.00
1712.00
1709.00
1712.00
1711.00
1709.00
1709.00
1711.00
1706.00
1703.00
1703.00
1700.00
1693.00
1686.00
1687.00
1689.00
1691.00
1700.00
1707.00
1707.00
1712.00
1719.00
1716.00
1721.00
1725.00
1718.00
1709.00
1701.00
1687.00
1683.00
1681.00
1682.00
1690.00
1698.00
1703.00
1709.00
1713.00
1717.00
1728.00
1725.00
1723.00
1723.00
1719.00
1715.00
1713.00
1717.00
1719.00
1719.00
1718.00
1721.00
1729.00
1729.00
1733.00
1739.00
1744.00
1746.00
1750.00
1750.00
1746.00
1744.00
1737.00
1737.00
1734.00
1735.00
1733.00
1732.00
1734.00
1729.00
1728.00
1726.00
1725.00
1722.00
1719.00
1711.00
1710.00
1703.00
1692.00
1686.00
1683.00
1687.00
1691.00
1692.00
1695.00
1698.00
1699.00
1706.00
1700.00
1700.00
1699.00
1705.00
1707.00
1707.00
1712.00
1714.00
1721.00
1717.00
1717.00
1714.00
1712.00
1714.00
1722.00
1727.00
1730.00
1738.00
1741.00
1741.00
1735.00
1735.00
1727.00
1726.00
1727.00
1731.00
1743.00
1751.00
1760.00
1771.00
1775.00
1773.00
1763.00
1757.00
1755.00
1751.00
1742.00
1735.00
1730.00
1722.00
1717.00
1714.00
1712.00
1705.00
1703.00
1702.00
1699.00
1702.00
1701.00
1706.00
1711.00
1713.00
1714.00
1714.00
1713.00
1712.00
1703.00
1705.00
1697.00
1694.00
1691.00
1689.00
1686.00
1685.00
1682.00
1681.00
1683.00
1691.00
1697.00
1707.00
1713.00
1714.00
1713.00
1712.00
1712.00
1712.00
1709.00
1710.00
1711.00
1710.00
1707.00
1703.00
1703.00
1706.00
1706.00
1711.00
1710.00
1712.00
1711.00
1702.00
1701.00
1699.00
1699.00
1699.00
1710.00
1709.00
1712.00
1711.00
1711.00
1710.00
1710.00
1708.00
1707.00
1709.00
1702.00
1705.00
1708.00
1721.00
1734.00
1744.00
1744.00
1744.00
1742.00
1741.00
1737.00
1737.00
1734.00
1729.00
1727.00
1725.00
1723.00
1719.00
1713.00
1712.00
1713.00
1722.00
1727.00
1733.00
1743.00
1750.00
1757.00
1761.00
1758.00
1757.00
1749.00
1744.00
1742.00
1731.00
1729.00
1721.00
1713.00
1711.00
1704.00
1697.00
1691.00
1685.00
1686.00
1685.00
1691.00
1699.00
1706.00
1707.00
1709.00
1710.00
1707.00
1706.00
1701.00
1701.00
1697.00
1696.00
1700.00
1686.00
1698.00
1695.00
1697.00
1696.00
1700.00
1703.00
1712.00
1712.00
1713.00
1710.00
1706.00
1701.00
1706.00
1712.00
1712.00
1718.00
1719.00
1723.00
1721.00
1721.00
1719.00
1714.00
1712.00
1710.00
1712.00
1718.00
1724.00
1728.00
1729.00
1728.00
1726.00
1716.00
1712.00
1706.00
1697.00
1705.00
1706.00
1708.00
1710.00
1709.00
1710.00
1711.00
1711.00
1711.00
1712.00
1718.00
1718.00
1726.00
1727.00
1726.00
1728.00
1734.00
1739.00
1743.00
1738.00
1741.00
1731.00
1731.00
1731.00
1731.00
1727.00
1727.00
1722.00
1717.00
1713.00
1712.00
1712.00
1711.00
1710.00
1710.00
1703.00
1702.00
1697.00
1686.00
1687.00
1685.00
1682.00
1679.00
1683.00
1681.00
1680.00
1680.00
1679.00
1683.00
1689.00
1699.00
1705.00
1705.00
1709.00
1712.00
1712.00
1715.00
1717.00
1715.00
1717.00
1715.00
1714.00
1712.00
1712.00
1710.00
1711.00
1712.00
1719.00
1729.00
1738.00
1744.00
1744.00
1749.00
1766.00
1741.00
1725.00
1713.00
1707.00
1697.00
1705.00
1713.00
1725.00
1731.00
1732.00
1732.00
1732.00
1724.00
1722.00
1722.00
1721.00
1724.00
1725.00
1727.00
1730.00
1729.00
1730.00
1731.00
1730.00
1726.00
1722.00
1717.00
1713.00
1712.00
1713.00
1712.00
1711.00
1711.00
1703.00
1699.00
1698.00
1702.00
1706.00
1710.00
1712.00
1718.00
1717.00
1719.00
1722.00
1723.00
1719.00
1717.00
1713.00
1713.00
1711.00
1711.00
1709.00
1711.00
1710.00
1712.00
1715.00
1722.00
1726.00
1725.00
1727.00
1726.00
1724.00
1741.00
1725.00
1719.00
1721.00
1723.00
1722.00
1724.00
1718.00
1721.00
1713.00
1712.00
1707.00
1697.00
1691.00
1691.00
1680.00
1680.00
1680.00
1684.00
1687.00
1698.00
1695.00
1708.00
1709.00
1712.00
1715.00
1723.00
1727.00
1729.00
1729.00
1734.00
1734.00
1734.00
1731.00
1731.00
1733.00
1737.00
1735.00
1738.00
1733.00
1734.00
1729.00
1734.00
1738.00
1740.00
1745.00
1751.00
1744.00
1742.00
1738.00
1729.00
1728.00
1729.00
1727.00
1722.00
1718.00
1714.00
1713.00
1717.00
1714.00
1717.00
1720.00
1728.00
1725.00
1722.00
1722.00
1717.00
1714.00
1712.00
1708.00
1705.00
1702.00
1702.00
1695.00
1695.00
1690.00
1685.00
1681.00
1681.00
1680.00
1680.00
1680.00
1681.00
1685.00
1690.00
1693.00
1695.00
1694.00
1695.00
1695.00
1700.00
1706.00
1712.00
1712.00
1715.00
1715.00
1712.00
1718.00
1719.00
1715.00
1713.00
1712.00
1705.00
1701.00
1694.00
1687.00
1689.00
1691.00
1687.00
1686.00
1685.00
1683.00
1686.00
1695.00
1694.00
1694.00
1690.00
1693.00
1691.00
1695.00
1698.00
1712.00
1718.00
1723.00
1726.00
1733.00
1731.00
1734.00
1735.00
1740.00
1742.00
1742.00
1744.00
1746.00
1751.00
1748.00
1747.00
1748.00
1744.00
1742.00
1739.00
1729.00
1723.00
1719.00
1718.00
1712.00
1712.00
1712.00
1711.00
1711.00
1707.00
1710.00
1712.00
1715.00
1722.00
1735.00
1739.00
1739.00
1735.00
1728.00
1727.00
1727.00
1723.00
1719.00
1714.00
1714.00
1714.00
1710.00
1707.00
1701.00
1699.00
1693.00
1695.00
1695.00
1693.00
1690.00
1699.00
1702.00
1703.00
1697.00
1686.00
1683.00
1680.00
1675.00
1678.00
1682.00
1689.00
1694.00
1696.00
1698.00
1698.00
1699.00
1702.00
1706.00
1707.00
1709.00
1707.00
1707.00
1703.00
1697.00
1701.00
1701.00
1703.00
1708.00
1710.00
1710.00
1703.00
1699.00
1698.00
1698.00
1703.00
1705.00
1709.00
1711.00
1712.00
1712.00
1710.00
1712.00
1712.00
1712.00
1712.00
1708.00
1705.00
1708.00
1706.00
1701.00
1702.00
1703.00
1709.00
1712.00
1719.00
1727.00
1730.00
1731.00
1733.00
1730.00
1728.00
1724.00
1714.00
1712.00
1713.00
1715.00
1715.00
1715.00
1723.00
1729.00
1728.00
1723.00
1714.00
1711.00
1706.00
1705.00
1707.00
1712.00
1718.00
1722.00
1723.00
1722.00
1719.00
1715.00
1712.00
1712.00
1707.00
1700.00
1692.00
1690.00
1683.00
1683.00
1685.00
1689.00
1695.00
1699.00
1711.00
1713.00
1723.00
1725.00
1730.00
1730.00
1728.00
1727.00
1718.00
1717.00
1712.00
1712.00
1712.00
1712.00
1712.00
1710.00
1711.00
1710.00
1712.00
1710.00
1710.00
1710.00
1711.00
1712.00
1710.00
1711.00
1714.00
1719.00
1728.00
1725.00
1728.00
1725.00
1722.00
1718.00
1715.00
1716.00
1716.00
1717.00
1712.00
1706.00
1705.00
1696.00
1693.00
1692.00
1692.00
1698.00
1700.00
1698.00
1697.00
1697.00
1698.00
1696.00
1703.00
1707.00
1710.00
1709.00
1712.00
1708.00
1699.00
1696.00
1701.00
1698.00
1702.00
1702.00
1711.00
1714.00
1721.00
1721.00
1722.00
1721.00
1723.00
1727.00
1728.00
1725.00
1725.00
1722.00
1726.00
1721.00
1719.00
1717.00
1718.00
1721.00
1719.00
1719.00
1717.00
1715.00
1715.00
1715.00
1717.00
1714.00
1712.00
1713.00
1710.00
1712.00
1712.00
1712.00
1712.00
1710.00
1709.00
1702.00
1709.00
1712.00
1717.00
1723.00
1735.00
1744.00
1744.00
1744.00
1741.00
1737.00
1729.00
1722.00
1711.00
1695.00
1698.00
1686.00
1681.00
1680.00
1681.00
1683.00
1693.00
1702.00
1710.00
1717.00
1725.00
1734.00
1733.00
1731.00
1729.00
1726.00
1721.00
1721.00
1714.00
1712.00
1712.00
1702.00
1695.00
1694.00
1687.00
1689.00
1695.00
1702.00
1709.00
1712.00
1713.00
1715.00
1717.00
1712.00
1709.00
1709.00
1701.00
1695.00
1693.00
1695.00
1698.00
1697.00
1695.00
1695.00
1691.00
1691.00
1694.00
1695.00
1691.00
1696.00
1703.00
1707.00
1709.00
1706.00
1699.00
1695.00
1695.00
1690.00
1689.00
1687.00
1686.00
1685.00
1691.00
1694.00
1700.00
1705.00
1713.00
1717.00
1718.00
1725.00
1730.00
1729.00
1728.00
1726.00
1727.00
1726.00
1727.00
1719.00
1717.00
1713.00
1712.00
1712.00
1711.00
1712.00
1719.00
1719.00
1722.00
1723.00
1725.00
1725.00
1723.00
1719.00
1716.00
1712.00
1711.00
1719.00
1711.00
1709.00
1711.00
1712.00
1712.00
1711.00
1702.00
1700.00
1691.00
1693.00
1698.00
1705.00
1712.00
1719.00
1723.00
1727.00
1731.00
1731.00
1735.00
1729.00
1732.00
1728.00
1729.00
1725.00
1718.00
1715.00
1711.00
1712.00
1711.00
1711.00
1712.00
1712.00
1713.00
1712.00
1712.00
1708.00
1706.00
1702.00
1699.00
1694.00
1694.00
1693.00
1691.00
1693.00
1693.00
1695.00
1695.00
1691.00
1687.00
1682.00
1683.00
1685.00
1686.00
1689.00
1690.00
1695.00
1701.00
1709.00
1712.00
1717.00
1719.00
1726.00
1725.00
1730.00
1735.00
1734.00
1727.00
1722.00
1712.00
1706.00
1691.00
1682.00
1680.00
1678.00
1680.00
1685.00
1693.00
1696.00
1700.00
1707.00
1707.00
1702.00
1701.00
1694.00
1693.00
1682.00
1681.00
1680.00
1680.00
1683.00
1689.00
1700.00
1706.00
1713.00
1717.00
1722.00
1723.00
1728.00
1732.00
1737.00
1734.00
1739.00
1738.00
1743.00
1744.00
1747.00
1747.00
1745.00
1744.00
1743.00
1739.00
1733.00
1727.00
1718.00
1717.00
1707.00
1696.00
1681.00
1673.00
1674.00
1671.00
1674.00
1680.00
1687.00
1699.00
1702.00
1708.00
1708.00
1710.00
1710.00
1712.00
1712.00
1709.00
1709.00
1706.00
1707.00
1707.00
1706.00
1712.00
1713.00
1714.00
1719.00
1720.00
1718.00
1713.00
1702.00
1699.00
1695.00
1687.00
1683.00
1683.00
1684.00
1690.00
1691.00
1698.00
1702.00
1702.00
1698.00
1703.00
1706.00
1710.00
1710.00
1710.00
1712.00
1712.00
1709.00
1707.00
1698.00
1695.00
1691.00
1693.00
1690.00
1695.00
1697.00
1695.00
1694.00
1689.00
1681.00
1680.00
1679.00
1683.00
1702.00
1713.00
1726.00
1729.00
1735.00
1744.00
1747.00
1747.00
1751.00
1754.00
1751.00
1749.00
1744.00
1742.00
1734.00
1729.00
1728.00
1728.00
1727.00
1729.00
1730.00
1731.00
1731.00
1729.00
1725.00
1719.00
1715.00
1711.00
1710.00
1707.00
1707.00
1709.00
1701.00
1711.00
1712.00
1713.00
1712.00
1713.00
1712.00
1715.00
1711.00
1709.00
1710.00
1703.00
1701.00
1702.00
1702.00
1701.00
1699.00
1703.00
1709.00
1713.00
1718.00
1723.00
1725.00
1722.00
1722.00
1719.00
1717.00
1721.00
1719.00
1712.00
1712.00
1704.00
1705.00
1699.00
1697.00
1692.00
1687.00
1686.00
1686.00
1689.00
1689.00
1694.00
1695.00
1691.00
1690.00
1695.00
1694.00
1695.00
1690.00
1695.00
1705.00
1713.00
1721.00
1727.00
1728.00
1729.00
1733.00
1739.00
1741.00
1738.00
1736.00
1730.00
1727.00
1723.00
1731.00
1731.00
1733.00
1737.00
1739.00
1731.00
1733.00
1728.00
1723.00
1725.00
1719.00
1718.00
1714.00
1712.00
1712.00
1712.00
1705.00
1702.00
1701.00
1697.00
1698.00
1699.00
1707.00
1707.00
1712.00
1712.00
1711.00
1702.00
1702.00
1697.00
1691.00
1687.00
1691.00
1694.00
1699.00
1705.00
1711.00
1715.00
1718.00
1727.00
1729.00
1734.00
1733.00
1735.00
1730.00
1725.00
1718.00
1713.00
1711.00
1712.00
1712.00
1713.00
1716.00
1726.00
1733.00
1742.00
1741.00
1744.00
1743.00
1743.00
1743.00
1739.00
1735.00
1732.00
1731.00
1729.00
1728.00
1729.00
1726.00
1711.00
1717.00
1715.00
1712.00
1712.00
1710.00
1706.00
1706.00
1712.00
1710.00
1712.00
1712.00
1717.00
1721.00
1725.00
1724.00
1723.00
1719.00
1715.00
1712.00
1711.00
1711.00
1709.00
1705.00
1708.00
1710.00
1709.00
1711.00
1714.00
1710.00
1706.00
1709.00
1702.00
1707.00
1710.00
1712.00
1712.00
1711.00
1711.00
1711.00
1705.00
1703.00
1698.00
1698.00
1706.00
1712.00
1718.00
1721.00
1718.00
1716.00
1714.00
1712.00
1711.00
1712.00
1712.00
1712.00
1716.00
1722.00
1719.00
1723.00
1727.00
1732.00
1730.00
1731.00
1734.00
1736.00
1734.00
1742.00
1741.00
1740.00
1737.00
1737.00
1735.00
1729.00
1723.00
1723.00
1711.00
1701.00
1706.00
1709.00
1711.00
1715.00
1719.00
1734.00
1730.00
1733.00
1733.00
1730.00
1728.00
1725.00
1716.00
1712.00
1712.00
1712.00
1714.00
1715.00
1714.00
1714.00
1718.00
1723.00
1726.00
1728.00
1729.00
1730.00
1731.00
1733.00
1731.00
1734.00
1730.00
1734.00
1729.00
1726.00
1718.00
1714.00
1706.00
1701.00
1694.00
1682.00
1680.00
1680.00
1679.00
1677.00
1679.00
1678.00
1680.00
1695.00
1703.00
1708.00
1713.00
1714.00
1712.00
1710.00
1712.00
1712.00
1712.00
1713.00
1713.00
1712.00
1703.00
1701.00
1695.00
1691.00
1695.00
1697.00
1708.00
1714.00
1728.00
1737.00
1742.00
1739.00
1727.00
1723.00
1712.00
1709.00
1711.00
1712.00
1718.00
1723.00
1721.00
1726.00
1715.00
1713.00
1713.00
1713.00
1713.00
1713.00
1716.00
1721.00
1725.00
1728.00
1727.00
1725.00
1723.00
1719.00
1719.00
1718.00
1723.00
1726.00
1723.00
1723.00
1723.00
1724.00
1721.00
1741.00
1725.00
1726.00
1723.00
1727.00
1728.00
1733.00
1733.00
1728.00
1728.00
1719.00
1713.00
1713.00
1705.00
1698.00
1694.00
1680.00
1680.00
1678.00
1682.00
1691.00
1701.00
1709.00
1710.00
1712.00
1712.00
1711.00
1712.00
1711.00
1709.00
1701.00
1693.00
1687.00
1686.00
1682.00
1681.00
1686.00
1686.00
1695.00
1693.00
1697.00
1697.00
1698.00
1695.00
1693.00
1693.00
1694.00
1703.00
1712.00
1719.00
1731.00
1740.00
1743.00
1738.00
1738.00
1725.00
1713.00
1705.00
1696.00
1697.00
1695.00
1706.00
1712.00
1712.00
1718.00
1717.00
1727.00
1730.00
1728.00
1730.00
1730.00
1719.00
1718.00
1717.00
1712.00
1707.00
1705.00
1695.00
1686.00
1686.00
1687.00
1693.00
1703.00
1713.00
1726.00
1735.00
1741.00
1741.00
1734.00
1735.00
1731.00
1735.00
1729.00
1726.00
1719.00
1716.00
1712.00
1712.00
1713.00
1714.00
1722.00
1727.00
1728.00
1731.00
1728.00
1726.00
1714.00
1706.00
1697.00
1697.00
1697.00
1703.00
1706.00
1707.00
1712.00
1713.00
1712.00
1715.00
1712.00
1712.00
1720.00
1718.00
1723.00
1726.00
1728.00
1726.00
1724.00
1719.00
1720.00
1719.00
1714.00
1712.00
1712.00
1707.00
1704.00
1702.00
1706.00
1710.00
1710.00
1714.00
1717.00
1723.00
1725.00
1727.00
1721.00
1718.00
1710.00
1701.00
1698.00
1697.00
1695.00
1693.00
1692.00
1693.00
1693.00
1693.00
1695.00
1695.00
1701.00
1699.00
1702.00
1703.00
1706.00
1711.00
1711.00
1710.00
1712.00
1715.00
1713.00
1714.00
1716.00
1722.00
1728.00
1730.00
1733.00
1733.00
1728.00
1723.00
1719.00
1713.00
1712.00
1712.00
1714.00
1719.00
1725.00
1730.00
1733.00
1731.00
1732.00
1728.00
1721.00
1715.00
1714.00
1712.00
1719.00
1722.00
1724.00
1721.00
1728.00
1720.00
1725.00
1731.00
1734.00
1739.00
1742.00
1739.00
1738.00
1745.00
1730.00
1730.00
1728.00
1728.00
1732.00
1729.00
1728.00
1729.00
1733.00
1731.00
1728.00
1728.00
1723.00
1719.00
1713.00
1717.00
1712.00
1712.00
1709.00
1709.00
1702.00
1699.00
1701.00
1699.00
1703.00
1697.00
1693.00
1696.00
1695.00
1694.00
1695.00
1696.00
1693.00
1691.00
1692.00
1696.00
1702.00
1707.00
1714.00
1715.00
1714.00
1711.00
1708.00
1706.00
1699.00
1699.00
1701.00
1706.00
1709.00
1713.00
1715.00
1719.00
1723.00
1732.00
1738.00
1735.00
1733.00
1733.00
1733.00
1733.00
1728.00
1727.00
1720.00
1722.00
1722.00
1723.00
1719.00
1721.00
1722.00
1725.00
1725.00
1728.00
1732.00
1740.00
1739.00
1734.00
1733.00
1726.00
1719.00
1717.00
1713.00
1712.00
1709.00
1705.00
1708.00
1705.00
1709.00
1715.00
1723.00
1728.00
1738.00
1738.00
1744.00
1748.00
1749.00
1750.00
1746.00
1744.00
1741.00
1735.00
1730.00
1726.00
1721.00
1714.00
1709.00
1707.00
1696.00
1687.00
1680.00
1680.00
1679.00
1683.00
1694.00
1703.00
1710.00
1709.00
1714.00
1715.00
1714.00
1711.00
1712.00
1707.00
1703.00
1703.00
1710.00
1713.00
1715.00
1713.00
1712.00
1709.00
1709.00
1710.00
1707.00
1711.00
1712.00
1713.00
1712.00
1713.00
1711.00
1712.00
1710.00
1703.00
1699.00
1698.00
1700.00
1705.00
1703.00
1703.00
1707.00
1701.00
1700.00
1701.00
1699.00
1701.00
1703.00
1703.00
1711.00
1712.00
1711.00
1712.00
1711.00
1708.00
1707.00
1707.00
1705.00
1705.00
1702.00
1706.00
1703.00
1697.00
1689.00
1684.00
1680.00
1683.00
1685.00
1699.00
1706.00
1713.00
1713.00
1721.00
1722.00
1721.00
1715.00
1712.00
1709.00
1706.00
1702.00
1694.00
1687.00
1686.00
1681.00
1683.00
1691.00
1689.00
1694.00
1702.00
1708.00
1713.00
1719.00
1715.00
1718.00
1715.00
1710.00
1705.00
1700.00
1699.00
1706.00
1707.00
1712.00
1722.00
1718.00
1725.00
1728.00
1726.00
1723.00
1719.00
1712.00
1707.00
1691.00
1681.00
1679.00
1675.00
1678.00
1669.00
1671.00
1677.00
1683.00
1690.00
1694.00
1699.00
1698.00
1701.00
1707.00
1712.00
1712.00
1713.00
1715.00
1715.00
1712.00
1715.00
1718.00
1711.00
1709.00
1709.00
1703.00
1707.00
1705.00
1703.00
1703.00
1696.00
1701.00
1700.00
1701.00
1701.00
1703.00
1707.00
1709.00
1708.00
1706.00
1701.00
1698.00
1693.00
1696.00
1695.00
1691.00
1695.00
1695.00
1694.00
1687.00
1690.00
1683.00
1686.00
1684.00
1683.00
1680.00
1687.00
1696.00
1702.00
1708.00
1712.00
1709.00
1700.00
1698.00
1693.00
1698.00
1701.00
1702.00
1712.00
1713.00
1712.00
1711.00
1712.00
1712.00
1712.00
1714.00
1712.00
1714.00
1717.00
1715.00
1715.00
1712.00
1712.00
1711.00
1710.00
1713.00
1723.00
1728.00
1739.00
1730.00
1726.00
1723.00
1719.00
1719.00
1725.00
1727.00
1727.00
1727.00
1728.00
1728.00
1727.00
1718.00
1717.00
1714.00
1711.00
1722.00
1729.00
1742.00
1744.00
1750.00
1757.00
1755.00
1754.00
1746.00
1744.00
1741.00
1737.00
1735.00
1735.00
1731.00
1729.00
1728.00
1725.00
1719.00
1715.00
1713.00
1709.00
1723.00
1698.00
1697.00
1703.00
1705.00
1702.00
1703.00
1709.00
1710.00
1703.00
1706.00
1707.00
1705.00
1704.00
1701.00
1698.00
1699.00
1706.00
1710.00
1706.00
1706.00
1705.00
1699.00
1696.00
1694.00
1697.00
1718.00
1712.00
1715.00
1717.00
1718.00
1713.00
1711.00
1711.00
1710.00
1697.00
1693.00
1687.00
1683.00
1687.00
1691.00
1706.00
1711.00
1714.00
1715.00
1717.00
1717.00
1718.00
1715.00
1716.00
1695.00
1709.00
1702.00
1698.00
1696.00
1695.00
1692.00
1697.00
1699.00
1702.00
1700.00
1702.00
1706.00
1712.00
1712.00
1714.00
1718.00
1719.00
1725.00
1729.00
1734.00
1735.00
1734.00
1735.00
1734.00
1730.00
1725.00
1719.00
1711.00
1708.00
1706.00
1703.00
1697.00
1684.00
1681.00
1680.00
1678.00
1675.00
1680.00
1673.00
1678.00
1682.00
1691.00
1703.00
1714.00
1711.00
1723.00
1721.00
1724.00
1723.00
1716.00
1712.00
1707.00
1697.00
1687.00
1694.00
1695.00
1697.00
1697.00
1692.00
1696.00
1694.00
1695.00
1702.00
1703.00
1703.00
1707.00
1708.00
1710.00
1707.00
1712.00
1705.00
1699.00
1696.00
1695.00
1695.00
1695.00
1697.00
1699.00
1697.00
1703.00
1706.00
1706.00
1703.00
1712.00
1712.00
1719.00
1721.00
1724.00
1718.00
1725.00
1730.00
1727.00
1734.00
1735.00
1733.00
1735.00
1739.00
1738.00
1739.00
1737.00
1731.00
1727.00
1722.00
1712.00
1706.00
1697.00
1694.00
1679.00
1696.00
1701.00
1710.00
1712.00
1721.00
1723.00
1729.00
1735.00
1733.00
1738.00
1741.00
1741.00
1743.00
1744.00
1744.00
1744.00
1739.00
1732.00
1723.00
1713.00
1711.00
1705.00
1698.00
1691.00
1686.00
1682.00
1687.00
1691.00
1705.00
1707.00
1712.00
1712.00
1714.00
1714.00
1717.00
1723.00
1728.00
1724.00
1727.00
1723.00
1719.00
1714.00
1711.00
1703.00
1701.00
1697.00
1703.00
1706.00
1708.00
1724.00
1712.00
1712.00
1711.00
1706.00
1703.00
1697.00
1701.00
1699.00
1708.00
1706.00
1702.00
1702.00
1709.00
1711.00
1712.00
1712.00
1713.00
1713.00
1715.00
1722.00
1723.00
1725.00
1732.00
1717.00
1718.00
1712.00
1713.00
1709.00
1712.00
1712.00
1711.00
1712.00
1709.00
1711.00
1711.00
1709.00
1702.00
1702.00
1706.00
1705.00
1711.00
1712.00
1721.00
1728.00
1737.00
1742.00
1744.00
1743.00
1744.00
1742.00
1734.00
1728.00
1728.00
1718.00
1714.00
1712.00
1707.00
1703.00
1712.00
1712.00
1714.00
1713.00
1717.00
1717.00
1714.00
1712.00
1711.00
1710.00
1699.00
1694.00
1685.00
1681.00
1681.00
1687.00
1692.00
1696.00
1712.00
1723.00
1729.00
1732.00
1735.00
1729.00
1730.00
1729.00
1727.00
1727.00
1724.00
1722.00
1723.00
1719.00
1716.00
1717.00
1713.00
1714.00
1706.00
1711.00
1711.00
1712.00
1712.00
1711.00
1712.00
1712.00
1712.00
1712.00
1719.00
1725.00
1724.00
1724.00
1723.00
1727.00
1728.00
1727.00
1728.00
1727.00
1723.00
1717.00
1715.00
1712.00
1711.00
1711.00
1712.00
1718.00
1726.00
1728.00
1730.00
1734.00
1730.00
1731.00
1727.00
1734.00
1739.00
1743.00
1739.00
1734.00
1725.00
1718.00
1713.00
1715.00
1717.00
1718.00
1721.00
1717.00
1722.00
1715.00
1712.00
1703.00
1691.00
1689.00
1687.00
1693.00
1699.00
1706.00
1728.00
1717.00
1714.00
1714.00
1715.00
1725.00
1731.00
1742.00
1749.00
1755.00
1761.00
1753.00
1756.00
1744.00
1734.00
1721.00
1712.00
1703.00
1700.00
1702.00
1702.00
1701.00
1703.00
1706.00
1709.00
1711.00
1712.00
1719.00
1727.00
1735.00
1733.00
1737.00
1734.00
1734.00
1734.00
1730.00
1730.00
1723.00
1722.00
1718.00
1714.00
1708.00
1703.00
1695.00
1699.00
1701.00
1709.00
1718.00
1725.00
1733.00
1735.00
1735.00
1738.00
1737.00
1735.00
1735.00
1735.00
1731.00
1726.00
1727.00
1719.00
1712.00
1710.00
1705.00
1703.00
1709.00
1712.00
1719.00
1716.00
1713.00
1709.00
1703.00
1694.00
1686.00
1681.00
1680.00
1681.00
1686.00
1686.00
1685.00
1682.00
1687.00
1694.00
1703.00
1712.00
1725.00
1731.00
1739.00
1744.00
1755.00
1759.00
1757.00
1757.00
1750.00
1744.00
1742.00
1742.00
1744.00
1749.00
1749.00
1745.00
1741.00
1739.00
1735.00
1731.00
1727.00
1725.00
1720.00
1714.00
1712.00
1712.00
1712.00
1712.00
1714.00
1715.00
1717.00
1719.00
1723.00
1726.00
1719.00
1715.00
1713.00
1708.00
1695.00
1698.00
1698.00
1702.00
1712.00
1717.00
1728.00
1730.00
1727.00
1728.00
1731.00
1730.00
1730.00
1728.00
1727.00
1726.00
1726.00
1721.00
1717.00
1712.00
1718.00
1715.00
1718.00
1728.00
1729.00
1727.00
1735.00
1735.00
1738.00
1738.00
1735.00
1730.00
1723.00
1719.00
1717.00
1712.00
1709.00
1699.00
1698.00
1691.00
1686.00
1682.00
1687.00
1693.00
1697.00
1694.00
1702.00
1712.00
1723.00
1730.00
1742.00
1740.00
1740.00
1740.00
1740.00
1733.00
1731.00
1726.00
1719.00
1712.00
1700.00
1698.00
1703.00
1707.00
1709.00
1714.00
1716.00
1717.00
1713.00
1712.00
1711.00
1714.00
1715.00
1721.00
1719.00
1723.00
1727.00
1730.00
1727.00
1729.00
1728.00
1729.00
1733.00
1733.00
1731.00
1730.00
1728.00
1723.00
1719.00
1715.00
1713.00
1707.00
1703.00
1699.00
1699.00
1697.00
1700.00
1700.00
1699.00
1702.00
1710.00
1707.00
1707.00
1710.00
1712.00
1714.00
1713.00
1711.00
1715.00
1712.00
1712.00
1709.00
1699.00
1707.00
1709.00
1709.00
1706.00
1701.00
1695.00
1695.00
1696.00
1699.00
1701.00
1703.00
1711.00
1709.00
1709.00
1710.00
1715.00
1714.00
1712.00
1703.00
1696.00
1695.00
1697.00
1701.00
1699.00
1701.00
1703.00
1699.00
1699.00
1697.00
1703.00
1707.00
1714.00
1714.00
1713.00
1712.00
1712.00
1711.00
1712.00
1706.00
1705.00
1707.00
1698.00
1700.00
1707.00
1705.00
1703.00
1709.00
1713.00
1718.00
1726.00
1731.00
1742.00
1744.00
1749.00
1747.00
1744.00
1744.00
1741.00
1733.00
1732.00
1728.00
1723.00
1725.00
1722.00
1717.00
1719.00
1722.00
1727.00
1729.00
1728.00
1731.00
1733.00
1734.00
1732.00
1733.00
1730.00
1725.00
1712.00
1707.00
1697.00
1689.00
1684.00
1691.00
1691.00
1705.00
1706.00
1710.00
1709.00
1712.00
1714.00
1714.00
1715.00
1717.00
1717.00
1712.00
1706.00
1698.00
1691.00
1681.00
1686.00
1687.00
1691.00
1703.00
1705.00
1703.00
1700.00
1694.00
1696.00
1697.00
1701.00
1699.00
1705.00
1707.00
1711.00
1712.00
1715.00
1719.00
1714.00
1712.00
1712.00
1712.00
1711.00
1705.00
1700.00
1692.00
1687.00
1687.00
1691.00
1693.00
1705.00
1705.00
1709.00
1712.00
1714.00
1717.00
1718.00
1717.00
1714.00
1712.00
1712.00
1714.00
1722.00
1729.00
1738.00
1744.00
1747.00
1746.00
1743.00
1744.00
1739.00
1735.00
1735.00
1741.00
1738.00
1743.00
1740.00
1741.00
1737.00
1730.00
1729.00
1726.00
1721.00
1713.00
1706.00
1698.00
1690.00
1694.00
1695.00
1701.00
1703.00
1709.00
1712.00
1712.00
1712.00
1711.00
1713.00
1715.00
1712.00
1714.00
1719.00
1719.00
1723.00
1717.00
1713.00
1709.00
1705.00
1699.00
1692.00
1691.00
1687.00
1689.00
1691.00
1695.00
1696.00
1701.00
1707.00
1711.00
1712.00
1712.00
1712.00
1710.00
1705.00
1699.00
1695.00
1693.00
1700.00
1705.00
1710.00
1703.00
1706.00
1711.00
1711.00
1712.00
1714.00
1713.00
1718.00
1712.00
1713.00
1716.00
1716.00
1722.00
1726.00
1728.00
1729.00
1729.00
1727.00
1728.00
1723.00
1725.00
1725.00
1729.00
1734.00
1730.00
1735.00
1727.00
1735.00
1738.00
1739.00
1742.00
1747.00
1754.00
1754.00
1756.00
1758.00
1754.00
1745.00
1742.00
1740.00
1732.00
1735.00
1730.00
1734.00
1731.00
1725.00
1727.00
1721.00
1714.00
1710.00
1705.00
1698.00
1695.00
1694.00
1694.00
1693.00
1692.00
1690.00
1687.00
1683.00
1682.00
1695.00
1700.00
1711.00
1716.00
1722.00
1726.00
1727.00
1727.00
1726.00
1719.00
1721.00
1722.00
1722.00
1717.00
1714.00
1723.00
1707.00
1696.00
1695.00
1696.00
1701.00
1700.00
1706.00
1712.00
1711.00
1715.00
1721.00
1726.00
1728.00
1734.00
1739.00
1744.00
1743.00
1741.00
1735.00
1731.00
1728.00
1729.00
1729.00
1728.00
1731.00
1737.00
1738.00
1740.00
1743.00
1739.00
1737.00
1733.00
1733.00
1732.00
1729.00
1725.00
1717.00
1712.00
1712.00
1706.00
1705.00
1705.00
1701.00
1707.00
1709.00
1710.00
1695.00
1699.00
1698.00
1698.00
1703.00
1712.00
1717.00
1717.00
1715.00
1712.00
1715.00
1713.00
1715.00
1712.00
1712.00
1714.00
1714.00
1722.00
1726.00
1735.00
1739.00
1734.00
1735.00
1731.00
1726.00
1721.00
1714.00
1719.00
1717.00
1715.00
1717.00
1716.00
1713.00
1714.00
1712.00
1713.00
1712.00
1712.00
1712.00
1711.00
1712.00
1706.00
1702.00
1700.00
1709.00
1712.00
1715.00
1718.00
1722.00
1721.00
1723.00
1721.00
1719.00
1717.00
1712.00
1711.00
1711.00
1713.00
1721.00
1729.00
1729.00
1731.00
1741.00
1760.00
1746.00
1745.00
1739.00
1734.00
1725.00
1713.00
1703.00
1687.00
1680.00
1681.00
1687.00
1693.00
1702.00
1712.00
1715.00
1742.00
1734.00
1741.00
1743.00
1744.00
1744.00
1743.00
1747.00
1738.00
1729.00
1727.00
1727.00
1725.00
1718.00
1718.00
1714.00
1710.00
1710.00
1710.00
1712.00
1715.00
1715.00
1721.00
1717.00
1716.00
1718.00
1712.00
1712.00
1712.00
1709.00
1701.00
1707.00
1709.00
1712.00
1713.00
1713.00
1717.00
1719.00
1725.00
1725.00
1727.00
1725.00
1716.00
1713.00
1707.00
1701.00
1697.00
1691.00
1694.00
1698.00
1701.00
1701.00
1698.00
1695.00
1687.00
1680.00
1679.00
1669.00
1671.00
1676.00
1681.00
1691.00
1702.00
1711.00
1722.00
1723.00
1728.00
1728.00
1729.00
1733.00
1734.00
1733.00
1729.00
1727.00
1719.00
1711.00
1697.00
1683.00
1683.00
1680.00
1680.00
1686.00
1694.00
1698.00
1701.00
1709.00
1711.00
1712.00
1715.00
1719.00
1722.00
1726.00
1726.00
1726.00
1725.00
1722.00
1724.00
1724.00
1729.00
1738.00
1733.00
1737.00
1733.00
1731.00
1722.00
1716.00
1718.00
1711.00
1707.00
1709.00
1707.00
1705.00
1701.00
1699.00
1696.00
1691.00
1694.00
1701.00
1710.00
1719.00
1730.00
1744.00
1749.00
1753.00
1747.00
1744.00
1732.00
1725.00
1722.00
1713.00
1710.00
1698.00
1693.00
1696.00
1697.00
1698.00
1698.00
1703.00
1703.00
1705.00
1710.00
1714.00
1715.00
1722.00
1722.00
1714.00
1712.00
1707.00
1697.00
1695.00
1691.00
1697.00
1701.00
1697.00
1694.00
1691.00
1687.00
1691.00
1694.00
1700.00
1705.00
1715.00
1727.00
1735.00
1739.00
1744.00
1744.00
1747.00
1746.00
1743.00
1727.00
1735.00
1724.00
1713.00
1708.00
1703.00
1695.00
1694.00
1697.00
1705.00
1712.00
1722.00
1727.00
1730.00
1734.00
1737.00
1739.00
1740.00
1736.00
1730.00
1734.00
1729.00
1727.00
1719.00
1713.00
1712.00
1712.00
1713.00
1716.00
1718.00
1719.00
1715.00
1712.00
1706.00
1702.00
1698.00
1694.00
1693.00
1695.00
1702.00
1710.00
1713.00
1717.00
1719.00
1718.00
1713.00
1713.00
1712.00
1711.00
1709.00
1712.00
1712.00
1712.00
1712.00
1710.00
1711.00
1711.00
1713.00
1713.00
1714.00
1712.00
1714.00
1715.00
1726.00
1739.00
1722.00
1717.00
1713.00
1709.00
1712.00
1715.00
1713.00
1709.00
1701.00
1695.00
1690.00
1691.00
1687.00
1689.00
1689.00
1686.00
1690.00
1685.00
1689.00
1701.00
1701.00
1697.00
1701.00
1707.00
1703.00
1702.00
1703.00
1706.00
1711.00
1712.00
1716.00
1719.00
1726.00
1727.00
1727.00
1728.00
1727.00
1722.00
1714.00
1712.00
1709.00
1703.00
1706.00
1707.00
1710.00
1710.00
1709.00
1713.00
1720.00
1725.00
1731.00
1739.00
1744.00
1747.00
1751.00
1753.00
1746.00
1743.00
1735.00
1728.00
1723.00
1717.00
1717.00
1725.00
1728.00
1734.00
1735.00
1731.00
1730.00
1723.00
1720.00
1717.00
1714.00
1714.00
1712.00
1722.00
1731.00
1744.00
1757.00
1765.00
1766.00
1765.00
1763.00
1759.00
1765.00
1762.00
1754.00
1745.00
1739.00
1731.00
1718.00
1709.00
1721.00
1695.00
1690.00
1686.00
1681.00
1680.00
1680.00
1675.00
1669.00
1666.00
1666.00
1669.00
1676.00
1680.00
1685.00
1687.00
1689.00
1683.00
1682.00
1681.00
1680.00
1681.00
1685.00
1690.00
1694.00
1699.00
1701.00
1697.00
1697.00
1695.00
1694.00
1685.00
1680.00
1678.00
1680.00
1680.00
1680.00
1683.00
1690.00
1698.00
1703.00
1708.00
1711.00
1714.00
1725.00
1729.00
1734.00
1732.00
1734.00
1737.00
1735.00
1751.00
1738.00
1737.00
1740.00
1739.00
1743.00
1746.00
1745.00
1746.00
1744.00
1740.00
1735.00
1739.00
1744.00
1744.00
1749.00
1744.00
1742.00
1735.00
1735.00
1729.00
1728.00
1727.00
1723.00
1717.00
1712.00
1705.00
1697.00
1696.00
1686.00
1693.00
1697.00
1696.00
1701.00
1704.00
1705.00
1698.00
1699.00
1703.00
1705.00
1710.00
1712.00
1715.00
1717.00
1719.00
1718.00
1723.00
1727.00
1728.00
1728.00
1731.00
1729.00
1727.00
1722.00
1717.00
1712.00
1713.00
1712.00
1709.00
1701.00
1698.00
1699.00
1698.00
1703.00
1707.00
1709.00
1712.00
1712.00
1712.00
1710.00
1707.00
1711.00
1711.00
1707.00
1695.00
1701.00
1697.00
1693.00
1693.00
1697.00
1703.00
1709.00
1712.00
1721.00
1727.00
1728.00
1726.00
1730.00
1730.00
1726.00
1728.00
1726.00
1723.00
1728.00
1728.00
1727.00
1719.00
1722.00
1723.00
1727.00
1729.00
1733.00
1729.00
1730.00
1728.00
1728.00
1731.00
1735.00
1738.00
1726.00
1714.00
1708.00
1698.00
1697.00
1700.00
1699.00
1711.00
1724.00
1730.00
1738.00
1742.00
1741.00
1739.00
1744.00
1744.00
1743.00
1738.00
1738.00
1728.00
1722.00
1717.00
1714.00
1709.00
1713.00
1715.00
1719.00
1719.00
1719.00
1715.00
1717.00
1713.00
1714.00
1713.00
1714.00
1713.00
1712.00
1712.00
1708.00
1695.00
1707.00
1709.00
1706.00
1705.00
1696.00
1682.00
1680.00
1663.00
1679.00
1682.00
1695.00
1709.00
1712.00
1715.00
1723.00
1724.00
1725.00
1726.00
1726.00
1714.00
1712.00
1712.00
1714.00
1722.00
1728.00
1730.00
1734.00
1735.00
1735.00
1733.00
1728.00
1726.00
1727.00
1724.00
1723.00
1723.00
1724.00
1726.00
1729.00
1738.00
1743.00
1741.00
1742.00
1740.00
1732.00
1732.00
1730.00
1730.00
1725.00
1717.00
1719.00
1722.00
1723.00
1729.00
1741.00
1744.00
1745.00
1745.00
1744.00
1745.00
1744.00
1744.00
1745.00
1743.00
1734.00
1729.00
1721.00
1715.00
1709.00
1699.00
1698.00
1701.00
1704.00
1707.00
1707.00
1706.00
1710.00
1711.00
1717.00
1714.00
1719.00
1723.00
1721.00
1722.00
1721.00
1712.00
1701.00
1697.00
1689.00
1681.00
1690.00
1694.00
1699.00
1708.00
1712.00
1718.00
1723.00
1721.00
1721.00
1726.00
1721.00
1719.00
1715.00
1715.00
1716.00
1713.00
1712.00
1717.00
1716.00
1714.00
1718.00
1718.00
1717.00
1722.00
1723.00
1723.00
1721.00
1717.00
1719.00
1712.00
1713.00
1717.00
1723.00
1728.00
1731.00
1735.00
1735.00
1733.00
1728.00
1723.00
1722.00
1719.00
1717.00
1716.00
1717.00
1717.00
1725.00
1724.00
1726.00
1723.00
1725.00
1718.00
1712.00
1707.00
1703.00
1701.00
1687.00
1682.00
1680.00
1683.00
1682.00
1683.00
1696.00
1707.00
1712.00
1714.00
1722.00
1722.00
1723.00
1718.00
1717.00
1715.00
1717.00
1721.00
1709.00
1700.00
1695.00
1691.00
1691.00
1691.00
1693.00
1692.00
1696.00
1705.00
1711.00
1715.00
1714.00
1714.00
1715.00
1722.00
1723.00
1728.00
1725.00
1727.00
1725.00
1725.00
1722.00
1726.00
1722.00
1725.00
1725.00
1719.00
1726.00
1719.00
1717.00
1714.00
1709.00
1704.00
1711.00
1712.00
1713.00
1714.00
1718.00
1719.00
1722.00
1726.00
1722.00
1723.00
1719.00
1723.00
1727.00
1727.00
1722.00
1712.00
1702.00
1690.00
1683.00
1689.00
1701.00
1717.00
1731.00
1735.00
1739.00
1743.00
1741.00
1738.00
1730.00
1731.00
1727.00
1731.00
1725.00
1722.00
1718.00
1728.00
1715.00
1714.00
1713.00
1714.00
1711.00
1709.00
1705.00
1707.00
1704.00
1711.00
1715.00
1718.00
1719.00
1722.00
1722.00
1725.00
1727.00
1725.00
1727.00
1727.00
1730.00
1734.00
1734.00
1732.00
1728.00
1739.00
1710.00
1698.00
1693.00
1691.00
1690.00
1691.00
1696.00
1694.00
1694.00
1687.00
1689.00
1685.00
1685.00
1693.00
1690.00
1694.00
1695.00
1698.00
1698.00
1700.00
1698.00
1702.00
1711.00
1712.00
1712.00
1715.00
1717.00
1715.00
1716.00
1715.00
1723.00
1723.00
1728.00
1732.00
1735.00
1738.00
1730.00
1728.00
1723.00
1723.00
1718.00
1716.00
1715.00
1718.00
1723.00
1727.00
1729.00
1732.00
1731.00
1735.00
1741.00
1744.00
1742.00
1743.00
1742.00
1743.00
1744.00
1749.00
1750.00
1760.00
1766.00
1775.00
1772.00
1765.00
1754.00
1744.00
1738.00
1729.00
1721.00
1718.00
1712.00
1712.00
1712.00
1712.00
1715.00
1722.00
1721.00
1715.00
1719.00
1717.00
1712.00
1711.00
1703.00
1708.00
1701.00
1699.00
1700.00
1701.00
1697.00
1695.00
1697.00
1706.00
1712.00
1714.00
1717.00
1718.00
1719.00
1713.00
1712.00
1710.00
1706.00
1699.00
1698.00
1701.00
1694.00
1695.00
1697.00
1697.00
1696.00
1695.00
1698.00
1707.00
1710.00
1713.00
1719.00
1723.00
1717.00
1714.00
1718.00
1717.00
1713.00
1698.00
1686.00
1675.00
1664.00
1664.00
1674.00
1680.00
1690.00
1699.00
1703.00
1709.00
1714.00
1712.00
1707.00
1709.00
1708.00
1703.00
1709.00
1709.00
1710.00
1707.00
1698.00
1699.00
1695.00
1691.00
1689.00
1692.00
1695.00
1702.00
1706.00
1707.00
1712.00
1713.00
1727.00
1739.00
1744.00
1749.00
1751.00
1749.00
1747.00
1751.00
1753.00
1751.00
1751.00
1746.00
1743.00
1740.00
1733.00
1729.00
1723.00
1722.00
1714.00
1712.00
1710.00
1700.00
1696.00
1694.00
1697.00
1697.00
1701.00
1703.00
1703.00
1709.00
1705.00
1703.00
1703.00
1701.00
1698.00
1691.00
1685.00
1680.00
1674.00
1665.00
1671.00
1675.00
1680.00
1686.00
1693.00
1692.00
1696.00
1701.00
1708.00
1709.00
1705.00
1701.00
1694.00
1686.00
1682.00
1681.00
1687.00
1687.00
1695.00
1701.00
1709.00
1709.00
1712.00
1713.00
1716.00
1717.00
1719.00
1725.00
1729.00
1731.00
1731.00
1735.00
1729.00
1725.00
1717.00
1712.00
1711.00
1711.00
1711.00
1713.00
1712.00
1714.00
1711.00
1711.00
1706.00
1699.00
1699.00
1702.00
1710.00
1712.00
1714.00
1713.00
1710.00
1709.00
1707.00
1705.00
1707.00
1707.00
1710.00
1712.00
1714.00
1715.00
1717.00
1718.00
1735.00
1718.00
1712.00
1712.00
1712.00
1712.00
1710.00
1712.00
1710.00
1711.00
1713.00
1717.00
1725.00
1729.00
1731.00
1727.00
1719.00
1718.00
1711.00
1703.00
1699.00
1702.00
1709.00
1714.00
1723.00
1722.00
1726.00
1726.00
1725.00
1733.00
1741.00
1744.00
1744.00
1743.00
1744.00
1729.00
1723.00
1714.00
1709.00
1698.00
1699.00
1706.00
1710.00
1710.00
1711.00
1712.00
1714.00
1717.00
1715.00
1717.00
1718.00
1721.00
1723.00
1726.00
1719.00
1731.00
1737.00
1739.00
1740.00
1742.00
1738.00
1730.00
1727.00
1723.00
1723.00
1723.00
1722.00
1723.00
1719.00
1717.00
1712.00
1707.00
1709.00
1711.00
1712.00
1715.00
1719.00
1724.00
1719.00
1719.00
1723.00
1721.00
1719.00
1717.00
1712.00
1711.00
1712.00
1712.00
1713.00
1709.00
1707.00
1706.00
1706.00
1700.00
1702.00
1711.00
1707.00
1703.00
1698.00
1688.00
1682.00
1674.00
1668.00
1665.00
1667.00
1683.00
1694.00
1698.00
1706.00
1712.00
1713.00
1717.00
1723.00
1723.00
1725.00
1726.00
1729.00
1731.00
1730.00
1733.00
1731.00
1727.00
1726.00
1723.00
1715.00
1712.00
1710.00
1705.00
1704.00
1707.00
1706.00
1713.00
1712.00
1715.00
1719.00
1721.00
1721.00
1719.00
1717.00
1723.00
1718.00
1717.00
1713.00
1719.00
1717.00
1725.00
1727.00
1731.00
1737.00
1734.00
1736.00
1735.00
1735.00
1739.00
1739.00
1732.00
1733.00
1729.00
1727.00
1727.00
1727.00
1722.00
1712.00
1703.00
1710.00
1705.00
1699.00
1697.00
1706.00
1709.00
1709.00
1712.00
1716.00
1715.00
1719.00
1717.00
1718.00
1714.00
1714.00
1710.00
1696.00
1683.00
1679.00
1665.00
1660.00
1659.00
1667.00
1678.00
1681.00
1687.00
1693.00
1698.00
1709.00
1711.00
1714.00
1719.00
1721.00
1725.00
1722.00
1722.00
1725.00
1717.00
1713.00
1710.00
1711.00
1712.00
1712.00
1717.00
1711.00
1725.00
1728.00
1731.00
1739.00
1744.00
1739.00
1738.00
1738.00
1738.00
1733.00
1730.00
1729.00
1725.00
1718.00
1718.00
1718.00
1721.00
1725.00
1725.00
1728.00
1726.00
1726.00
1723.00
1723.00
1726.00
1726.00
1729.00
1731.00
1732.00
1735.00
1730.00
1727.00
1715.00
1713.00
1713.00
1712.00
1719.00
1718.00
1721.00
1719.00
1711.00
1701.00
1696.00
1694.00
1700.00
1699.00
1711.00
1712.00
1718.00
1722.00
1717.00
1712.00
1712.00
1703.00
1714.00
1723.00
1727.00
1734.00
1735.00
1735.00
1734.00
1729.00
1728.00
1729.00
1729.00
1732.00
1731.00
1719.00
1706.00
1683.00
1675.00
1665.00
1662.00
1666.00
1674.00
1680.00
1686.00
1695.00
1698.00
1706.00
1711.00
1713.00
1717.00
1715.00
1730.00
1713.00
1715.00
1717.00
1723.00
1728.00
1727.00
1727.00
1723.00
1720.00
1717.00
1714.00
1716.00
1718.00
1715.00
1711.00
1712.00
1711.00
1712.00
1715.00
1719.00
1721.00
1726.00
1728.00
1728.00
1730.00
1730.00
1728.00
1731.00
1728.00
1728.00
1724.00
1719.00
1719.00
1717.00
1718.00
1715.00
1715.00
1712.00
1712.00
1711.00
1712.00
1710.00
1711.00
1705.00
1700.00
1697.00
1699.00
1700.00
1710.00
1712.00
1715.00
1712.00
1712.00
1712.00
1721.00
1700.00
1692.00
1689.00
1689.00
1691.00
1698.00
1707.00
1712.00
1716.00
1713.00
1715.00
1713.00
1714.00
1715.00
1717.00
1715.00
1718.00
1717.00
1714.00
1712.00
1712.00
1712.00
1713.00
1718.00
1721.00
1721.00
1723.00
1728.00
1729.00
1734.00
1735.00
1733.00
1723.00
1717.00
1712.00
1707.00
1706.00
1706.00
1710.00
1711.00
1714.00
1712.00
1712.00
1719.00
1726.00
1728.00
1730.00
1730.00
1728.00
1723.00
1723.00
1712.00
1694.00
1686.00
1680.00
1678.00
1673.00
1681.00
1692.00
1697.00
1699.00
1697.00
1693.00
1697.00
1699.00
1712.00
1717.00
1725.00
1731.00
1739.00
1739.00
1741.00
1741.00
1723.00
1714.00
1715.00
1718.00
1722.00
1730.00
1734.00
1735.00
1738.00
1738.00
1735.00
1737.00
1743.00
1745.00
1747.00
1745.00
1744.00
1744.00
1744.00
1742.00
1743.00
1739.00
1739.00
1735.00
1730.00
1728.00
1726.00
1723.00
1713.00
1711.00
1713.00
1712.00
1712.00
1711.00
1715.00
1713.00
1717.00
1714.00
1722.00
1725.00
1726.00
1726.00
1723.00
1716.00
1715.00
1715.00
1712.00
1707.00
1699.00
1696.00
1694.00
1690.00
1689.00
1694.00
1697.00
1693.00
1691.00
1695.00
1695.00
1690.00
1702.00
1703.00
1699.00
1707.00
1710.00
1707.00
1702.00
1702.00
1702.00
1709.00
1709.00
1716.00
1723.00
1735.00
1738.00
1733.00
1735.00
1738.00
1741.00
1737.00
1739.00
1733.00
1727.00
1713.00
1709.00
1709.00
1711.00
1715.00
1728.00
1739.00
1742.00
1744.00
1747.00
1744.00
1741.00
1733.00
1727.00
1723.00
1715.00
1714.00
1715.00
1718.00
1718.00
1718.00
1717.00
1712.00
1712.00
1708.00
1703.00
1698.00
1703.00
1712.00
1718.00
1726.00
1733.00
1731.00
1728.00
1721.00
1723.00
1714.00
1713.00
1712.00
1712.00
1712.00
1714.00
1712.00
1711.00
1712.00
1712.00
1715.00
1714.00
1714.00
1717.00
1725.00
1731.00
1741.00
1744.00
1744.00
1744.00
1731.00
1721.00
1712.00
1706.00
1707.00
1706.00
1706.00
1702.00
1701.00
1703.00
1708.00
1712.00
1714.00
1713.00
1719.00
1715.00
1712.00
1710.00
1703.00
1707.00
1698.00
1700.00
1705.00
1710.00
1712.00
1712.00
1712.00
1713.00
1713.00
1712.00
1718.00
1721.00
1722.00
1718.00
1719.00
1717.00
1717.00
1719.00
1721.00
1719.00
1719.00
1719.00
1717.00
1714.00
1712.00
1709.00
1700.00
1697.00
1696.00
1694.00
1699.00
1709.00
1712.00
1716.00
1715.00
1717.00
1715.00
1717.00
1715.00
1718.00
1715.00
1712.00
1712.00
1709.00
1712.00
1705.00
1699.00
1698.00
1696.00
1704.00
1701.00
1702.00
1712.00
1717.00
1719.00
1727.00
1727.00
1719.00
1726.00
1726.00
1728.00
1728.00
1729.00
1733.00
1729.00
1726.00
1719.00
1717.00
1708.00
1710.00
1712.00
1712.00
1717.00
1726.00
1733.00
1739.00
1741.00
1745.00
1751.00
1757.00
1756.00
1758.00
1758.00
1749.00
1744.00
1744.00
1737.00
1735.00
1727.00
1718.00
1712.00
1712.00
1709.00
1705.00
1700.00
1707.00
1712.00
1710.00
1712.00
1707.00
1701.00
1698.00
1695.00
1694.00
1698.00
1701.00
1702.00
1700.00
1697.00
1699.00
1702.00
1702.00
1705.00
1699.00
1697.00
1689.00
1682.00
1677.00
1675.00
1674.00
1671.00
1674.00
1680.00
1680.00
1681.00
1680.00
1680.00
1684.00
1687.00
1691.00
1694.00
1693.00
1696.00
1696.00
1697.00
1699.00
1699.00
1704.00
1701.00
1701.00
1701.00
1702.00
1705.00
1709.00
1710.00
1714.00
1722.00
1717.00
1717.00
1718.00
1715.00
1719.00
1728.00
1730.00
1739.00
1739.00
1739.00
1739.00
1735.00
1730.00
1728.00
1725.00
1717.00
1715.00
1710.00
1706.00
1700.00
1700.00
1706.00
1706.00
1706.00
1715.00
1714.00
1717.00
1725.00
1727.00
1722.00
1719.00
1719.00
1714.00
1710.00
1704.00
1697.00
1681.00
1674.00
1665.00
1667.00
1664.00
1663.00
1669.00
1678.00
1693.00
1700.00
1711.00
1713.00
1723.00
1725.00
1725.00
1727.00
1726.00
1723.00
1719.00
1717.00
1714.00
1712.00
1703.00
1700.00
1696.00
1691.00
1689.00
1689.00
1689.00
1685.00
1679.00
1683.00
1681.00
1680.00
1680.00
1689.00
1690.00
1694.00
1700.00
1698.00
1703.00
1706.00
1701.00
1694.00
1683.00
1686.00
1680.00
1676.00
1679.00
1680.00
1680.00
1682.00
1683.00
1686.00
1687.00
1692.00
1685.00
1675.00
1664.00
1663.00
1661.00
1665.00
1668.00
1680.00
1674.00
1680.00
1685.00
1694.00
1706.00
1711.00
1711.00
1721.00
1721.00
1717.00
1715.00
1715.00
1713.00
1714.00
1713.00
1716.00
1722.00
1721.00
1724.00
1724.00
1726.00
1725.00
1728.00
1729.00
1727.00
1730.00
1729.00
1728.00
1717.00
1716.00
1719.00
1712.00
1708.00
1711.00
1713.00
1712.00
1712.00
1712.00
1712.00
1707.00
1703.00
1695.00
1685.00
1685.00
1685.00
1693.00
1706.00
1712.00
1719.00
1726.00
1728.00
1729.00
1722.00
1715.00
1718.00
1723.00
1727.00
1732.00
1731.00
1727.00
1722.00
1711.00
1706.00
1702.00
1698.00
1698.00
1697.00
1701.00
1701.00
1699.00
1698.00
1701.00
1702.00
1703.00
1708.00
1711.00
1712.00
1710.00
1703.00
1703.00
1701.00
1696.00
1693.00
1697.00
1699.00
1701.00
1703.00
1706.00
1712.00
1712.00
1713.00
1715.00
1712.00
1724.00
1715.00
1721.00
1715.00
1715.00
1709.00
1703.00
1699.00
1697.00
1693.00
1699.00
1703.00
1711.00
1712.00
1725.00
1728.00
1733.00
1741.00
1742.00
1737.00
1735.00
1729.00
1724.00
1727.00
1728.00
1719.00
1719.00
1715.00
1712.00
1709.00
1710.00
1706.00
1713.00
1723.00
1722.00
1717.00
1712.00
1712.00
1703.00
1701.00
1703.00
1712.00
1714.00
1721.00
1724.00
1717.00
1713.00
1706.00
1698.00
1690.00
1693.00
1693.00
1696.00
1697.00
1707.00
1711.00
1710.00
1709.00
1712.00
1711.00
1711.00
1712.00
1715.00
1714.00
1713.00
1716.00
1717.00
1715.00
1721.00
1723.00
1726.00
1729.00
1733.00
1733.00
1733.00
1735.00
1729.00
1731.00
1729.00
1731.00
1734.00
1732.00
1734.00
1733.00
1733.00
1731.00
1727.00
1723.00
1715.00
1711.00
1707.00
1699.00
1705.00
1702.00
1701.00
1699.00
1696.00
1692.00
1680.00
1680.00
1684.00
1682.00
1682.00
1680.00
1680.00
1680.00
1686.00
1697.00
1711.00
1715.00
1725.00
1728.00
1735.00
1742.00
1743.00
1748.00
1746.00
1744.00
1744.00
1738.00
1734.00
1734.00
1734.00
1734.00
1728.00
1731.00
1735.00
1731.00
1733.00
1730.00
1732.00
1732.00
1730.00
1730.00
1732.00
1733.00
1733.00
1731.00
1730.00
1728.00
1727.00
1725.00
1726.00
1719.00
1723.00
1723.00
1734.00
1734.00
1726.00
1734.00
1736.00
1738.00
1738.00
1745.00
1749.00
1747.00
1747.00
1747.00
1742.00
1735.00
1726.00
1715.00
1710.00
1709.00
1703.00
1699.00
1696.00
1695.00
1686.00
1683.00
1682.00
1691.00
1697.00
1704.00
1703.00
1706.00
1707.00
1698.00
1703.00
1709.00
1712.00
1716.00
1712.00
1717.00
1723.00
1714.00
1712.00
1695.00
1693.00
1694.00
1695.00
1703.00
1714.00
1722.00
1719.00
1721.00
1717.00
1713.00
1710.00
1703.00
1696.00
1694.00
1695.00
1695.00
1709.00
1712.00
1719.00
1735.00
1744.00
1745.00
1757.00
1759.00
1758.00
1761.00
1759.00
1757.00
1749.00
1747.00
1744.00
1742.00
1733.00
1745.00
1731.00
1729.00
1723.00
1717.00
1713.00
1712.00
1701.00
1703.00
1703.00
1707.00
1715.00
1723.00
1731.00
1736.00
1739.00
1741.00
1744.00
1744.00
1744.00
1741.00
1737.00
1734.00
1729.00
1728.00
1712.00
1712.00
1712.00
1712.00
1712.00
1712.00
1708.00
1700.00
1697.00
1693.00
1687.00
1691.00
1699.00
1706.00
1709.00
1709.00
1707.00
1702.00
1700.00
1701.00
1703.00
1711.00
1717.00
1711.00
1715.00
1716.00
1713.00
1712.00
1715.00
1713.00
1716.00
1727.00
1723.00
1723.00
1726.00
1723.00
1727.00
1727.00
1727.00
1727.00
1730.00
1735.00
1734.00
1741.00
1744.00
1744.00
1744.00
1744.00
1741.00
1738.00
1738.00
1739.00
1735.00
1731.00
1725.00
1717.00
1723.00
1721.00
1727.00
1730.00
1728.00
1731.00
1735.00
1743.00
1743.00
1741.00
1739.00
1735.00
1730.00
1714.00
1706.00
1701.00
1696.00
1690.00
1694.00
1698.00
1709.00
1712.00
1715.00
1726.00
1731.00
1741.00
1744.00
1744.00
1744.00
1744.00
1744.00
1748.00
1744.00
1743.00
1735.00
1734.00
1733.00
1734.00
1733.00
1735.00
1733.00
1727.00
1719.00
1707.00
1696.00
1687.00
1690.00
1699.00
1707.00
1712.00
1714.00
1718.00
1714.00
1714.00
1712.00
1715.00
1719.00
1713.00
1715.00
1722.00
1723.00
1726.00
1725.00
1718.00
1718.00
1712.00
1712.00
1707.00
1707.00
1702.00
1706.00
1712.00
1712.00
1717.00
1718.00
1719.00
1719.00
1719.00
1717.00
1717.00
1717.00
1716.00
1718.00
1717.00
1716.00
1713.00
1714.00
1712.00
1713.00
1714.00
1709.00
1708.00
1701.00
1705.00
1703.00
1706.00
1698.00
1695.00
1693.00
1699.00
1703.00
1712.00
1716.00
1722.00
1711.00
1713.00
1713.00
1712.00
1712.00
1715.00
1712.00
1719.00
1721.00
1725.00
1716.00
1717.00
1725.00
1725.00
1723.00
1725.00
1723.00
1722.00
1718.00
1712.00
1709.00
1706.00
1702.00
1699.00
1713.00
1707.00
1712.00
1712.00
1714.00
1714.00
1713.00
1713.00
1712.00
1712.00
1713.00
1712.00
1712.00
1709.00
1695.00
1706.00
1703.00
1712.00
1715.00
1723.00
1728.00
1731.00
1738.00
1742.00
1739.00
1742.00
1738.00
1742.00
1735.00
1736.00
1728.00
1726.00
1727.00
1730.00
1735.00
1739.00
1742.00
1744.00
1748.00
1750.00
1746.00
1745.00
1746.00
1742.00
1741.00
1734.00
1717.00
1710.00
1697.00
1695.00
1693.00
1690.00
1682.00
1683.00
1679.00
1680.00
1678.00
1683.00
1683.00
1695.00
1699.00
1705.00
1706.00
1710.00
1705.00
1710.00
1711.00
1719.00
1718.00
1712.00
1701.00
1695.00
1687.00
1683.00
1694.00
1705.00
1712.00
1715.00
1717.00
1722.00
1726.00
1728.00
1732.00
1731.00
1726.00
1725.00
1724.00
1724.00
1721.00
1719.00
1727.00
1733.00
1727.00
1731.00
1739.00
1739.00
1737.00
1733.00
1730.00
1731.00
1734.00
1734.00
1735.00
1731.00
1734.00
1737.00
1728.00
1730.00
1729.00
1729.00
1730.00
1729.00
1730.00
1731.00
1739.00
1737.00
1738.00
1734.00
1742.00
1737.00
1740.00
1747.00
1753.00
1761.00
1759.00
1758.00
1757.00
1748.00
1744.00
1741.00
1732.00
1727.00
1722.00
1712.00
1706.00
1695.00
1683.00
1675.00
1670.00
1667.00
1669.00
1664.00
1667.00
1675.00
1681.00
1686.00
1690.00
1686.00
1682.00
1678.00
1680.00
1687.00
1691.00
1699.00
1708.00
1710.00
1711.00
1707.00
1712.00
1714.00
1717.00
1716.00
1720.00
1718.00
1715.00
1712.00
1715.00
1716.00
1712.00
1715.00
1712.00
1712.00
1709.00
1703.00
1706.00
1704.00
1712.00
1715.00
1723.00
1731.00
1735.00
1742.00
1744.00
1745.00
1745.00
1738.00
1733.00
1726.00
1717.00
1712.00
1706.00
1703.00
1707.00
1711.00
1712.00
1714.00
1715.00
1719.00
1725.00
1726.00
1729.00
1728.00
1719.00
1728.00
1727.00
1716.00
1713.00
1714.00
1712.00
1710.00
1710.00
1708.00
1707.00
1713.00
1721.00
1725.00
1725.00
1722.00
1716.00
1718.00
1718.00
1722.00
1727.00
1729.00
1731.00
1731.00
1729.00
1728.00
1723.00
1723.00
1719.00
1717.00
1716.00
1712.00
1713.00
1717.00
1726.00
1731.00
1738.00
1743.00
1744.00
1754.00
1746.00
1744.00
1737.00
1726.00
1719.00
1712.00
1712.00
1710.00
1712.00
1713.00
1712.00
1714.00
1712.00
1712.00
1711.00
1702.00
1706.00
1702.00
1710.00
1710.00
1705.00
1698.00
1695.00
1684.00
1683.00
1686.00
1691.00
1701.00
1710.00
1713.00
1722.00
1725.00
1728.00
1730.00
1734.00
1735.00
1738.00
1738.00
1741.00
1742.00
1744.00
1744.00
1744.00
1738.00
1735.00
1729.00
1725.00
1726.00
1729.00
1733.00
1741.00
1743.00
1741.00
1735.00
1733.00
1731.00
1733.00
1733.00
1734.00
1741.00
1744.00
1749.00
1758.00
1757.00
1762.00
1757.00
1749.00
1742.00
1739.00
1734.00
1735.00
1742.00
1740.00
1744.00
1739.00
1737.00
1734.00
1731.00
1727.00
1728.00
1723.00
1720.00
1714.00
1707.00
1697.00
1685.00
1679.00
1677.00
1670.00
1674.00
1677.00
1679.00
1681.00
1681.00
1681.00
1677.00
1675.00
1677.00
1677.00
1673.00
1680.00
1684.00
1685.00
1689.00
1693.00
1695.00
1696.00
1698.00
1699.00
1703.00
1702.00
1712.00
1722.00
1728.00
1733.00
1737.00
1742.00
1744.00
1745.00
1745.00
1745.00
1745.00
1745.00
1742.00
1741.00
1733.00
1731.00
1727.00
1722.00
1713.00
1712.00
1709.00
1703.00
1700.00
1707.00
1713.00
1719.00
1727.00
1734.00
1737.00
1743.00
1745.00
1750.00
1744.00
1742.00
1735.00
1731.00
1728.00
1725.00
1730.00
1734.00
1739.00
1741.00
1739.00
1734.00
1732.00
1729.00
1719.00
1709.00
1702.00
1707.00
1700.00
1704.00
1710.00
1718.00
1719.00
1719.00
1713.00
1710.00
1706.00
1707.00
1712.00
1711.00
1712.00
1711.00
1712.00
1711.00
1712.00
1714.00
1717.00
1719.00
1714.00
1712.00
1710.00
1709.00
1705.00
1699.00
1701.00
1703.00
1707.00
1711.00
1709.00
1710.00
1711.00
1707.00
1709.00
1711.00
1713.00
1719.00
1723.00
1728.00
1727.00
1726.00
1723.00
1714.00
1706.00
1698.00
1691.00
1689.00
1683.00
1694.00
1703.00
1711.00
1713.00
1722.00
1726.00
1725.00
1729.00
1733.00
1737.00
1735.00
1737.00
1733.00
1728.00
1728.00
1722.00
1719.00
1713.00
1714.00
1713.00
1712.00
1711.00
1714.00
1714.00
1712.00
1712.00
1716.00
1715.00
1717.00
1723.00
1728.00
1726.00
1728.00
1719.00
1712.00
1709.00
1701.00
1698.00
1692.00
1695.00
1701.00
1707.00
1712.00
1712.00
1713.00
1695.00
1711.00
1711.00
1711.00
1714.00
1719.00
1716.00
1721.00
1715.00
1714.00
1717.00
1712.00
1703.00
1705.00
1693.00
1695.00
1694.00
1698.00
1697.00
1703.00
1702.00
1712.00
1719.00
1728.00
1735.00
1743.00
1745.00
1742.00
1735.00
1730.00
1726.00
1723.00
1712.00
1712.00
1710.00
1703.00
1697.00
1696.00
1697.00
1697.00
1705.00
1712.00
1714.00
1725.00
1726.00
1724.00
1728.00
1730.00
1729.00
1727.00
1726.00
1728.00
1724.00
1725.00
1719.00
1713.00
1711.00
1706.00
1711.00
1712.00
1715.00
1723.00
1729.00
1733.00
1743.00
1745.00
1751.00
1754.00
1745.00
1744.00
1743.00
1729.00
1728.00
1719.00
1725.00
1719.00
1718.00
1728.00
1712.00
1707.00
1708.00
1710.00
1712.00
1712.00
1713.00
1713.00
1712.00
1713.00
1715.00
1712.00
1712.00
1703.00
1699.00
1695.00
1697.00
1699.00
1702.00
1700.00
1702.00
1704.00
1712.00
1712.00
1719.00
1725.00
1734.00
1733.00
1729.00
1717.00
1712.00
1711.00
1712.00
1711.00
1711.00
1711.00
1712.00
1711.00
1711.00
1708.00
1699.00
1698.00
1694.00
1704.00
1705.00
1712.00
1714.00
1717.00
1718.00
1718.00
1711.00
1705.00
1701.00
1697.00
1702.00
1702.00
1707.00
1710.00
1710.00
1710.00
1709.00
1712.00
1710.00
1711.00
1715.00
1721.00
1721.00
1726.00
1729.00
1734.00
1733.00
1734.00
1733.00
1731.00
1727.00
1727.00
1723.00
1718.00
1717.00
1715.00
1715.00
1712.00
1711.00
1714.00
1717.00
1719.00
1722.00
1718.00
1715.00
1714.00
1712.00
1710.00
1719.00
1733.00
1741.00
1739.00
1729.00
1723.00
1719.00
1717.00
1718.00
1720.00
1719.00
1715.00
1718.00
1724.00
1726.00
1734.00
1739.00
1744.00
1742.00
1735.00
1732.00
1723.00
1723.00
1718.00
1714.00
1716.00
1707.00
1707.00
1696.00
1690.00
1682.00
1681.00
1691.00
1692.00
1697.00
1705.00
1709.00
1711.00
1713.00
1714.00
1719.00
1718.00
1703.00
1706.00
1707.00
1701.00
1699.00
1702.00
1701.00
1702.00
1703.00
1711.00
1713.00
1718.00
1723.00
1723.00
1722.00
1719.00
1721.00
1714.00
1711.00
1707.00
1699.00
1695.00
1697.00
1697.00
1705.00
1712.00
1714.00
1719.00
1722.00
1724.00
1729.00
1734.00
1739.00
1741.00
1739.00
1740.00
1733.00
1723.00
1719.00
1718.00
1714.00
1712.00
1712.00
1712.00
1712.00
1712.00
1712.00
1712.00
1712.00
1715.00
1714.00
1715.00
1712.00
1717.00
1721.00
1726.00
1728.00
1734.00
1734.00
1732.00
1729.00
1728.00
1725.00
1719.00
1712.00
1707.00
1699.00
1701.00
1699.00
1696.00
1705.00
1706.00
1707.00
1708.00
1708.00
1710.00
1709.00
1706.00
1701.00
1696.00
1693.00
1685.00
1683.00
1679.00
1680.00
1680.00
1680.00
1682.00
1684.00
1691.00
1696.00
1705.00
1710.00
1712.00
1714.00
1715.00
1712.00
1714.00
1712.00
1709.00
1702.00
1696.00
1693.00
1680.00
1681.00
1685.00
1685.00
1685.00
1693.00
1698.00
1703.00
1707.00
1711.00
1712.00
1715.00
1715.00
1718.00
1722.00
1725.00
1726.00
1730.00
1731.00
1734.00
1735.00
1728.00
1721.00
1713.00
1712.00
1706.00
1709.00
1709.00
1712.00
1712.00
1716.00
1724.00
1724.00
1729.00
1734.00
1734.00
1739.00
1735.00
1735.00
1728.00
1721.00
1711.00
1697.00
1683.00
1675.00
1674.00
1679.00
1680.00
1690.00
1698.00
1709.00
1717.00
1728.00
1739.00
1745.00
1749.00
1750.00
1750.00
1745.00
1741.00
1730.00
1718.00
1711.00
1698.00
1687.00
1681.00
1686.00
1690.00
1697.00
1699.00
1705.00
1707.00
1711.00
1709.00
1706.00
1706.00
1699.00
1701.00
1706.00
1705.00
1707.00
1706.00
1703.00
1699.00
1694.00
1693.00
1691.00
1695.00
1698.00
1699.00
1706.00
1712.00
1710.00
1712.00
1715.00
1719.00
1712.00
1712.00
1709.00
1701.00
1698.00
1696.00
1701.00
1696.00
1702.00
1708.00
1712.00
1712.00
1719.00
1723.00
1725.00
1729.00
1727.00
1725.00
1722.00
1712.00
1699.00
1691.00
1694.00
1690.00
1687.00
1696.00
1709.00
1709.00
1714.00
1722.00
1728.00
1730.00
1745.00
1733.00
1728.00
1723.00
1718.00
1712.00
1710.00
1708.00
1705.00
1703.00
1700.00
1703.00
1705.00
1710.00
1712.00
1709.00
1708.00
1707.00
1703.00
1698.00
1695.00
1697.00
1696.00
1696.00
1695.00
1693.00
1697.00
1694.00
1690.00
1689.00
1691.00
1694.00
1693.00
1697.00
1699.00
1699.00
1702.00
1699.00
1703.00
1706.00
1710.00
1712.00
1713.00
1715.00
1715.00
1717.00
1718.00
1717.00
1714.00
1715.00
1719.00
1718.00
1719.00
1713.00
1716.00
1711.00
1710.00
1701.00
1695.00
1697.00
1697.00
1698.00
1699.00
1701.00
1705.00
1709.00
1707.00
1713.00
1710.00
1709.00
1709.00
1706.00
1703.00
1703.00
1707.00
1712.00
1712.00
1717.00
1719.00
1727.00
1733.00
1735.00
1733.00
1733.00
1731.00
1731.00
1733.00
1729.00
1727.00
1723.00
1716.00
1715.00
1714.00
1712.00
1711.00
1712.00
1715.00
1716.00
1716.00
1722.00
1726.00
1726.00
1726.00
1730.00
1733.00
1728.00
1722.00
1718.00
1712.00
1712.00
1711.00
1707.00
1703.00
1698.00
1693.00
1680.00
1667.00
1659.00
1655.00
1658.00
1667.00
1678.00
1685.00
1692.00
1697.00
1696.00
1697.00
1695.00
1696.00
1690.00
1691.00
1691.00
1693.00
1697.00
1701.00
1695.00
1685.00
1680.00
1679.00
1679.00
1675.00
1679.00
1689.00
1691.00
1693.00
1693.00
1690.00
1687.00
1681.00
1683.00
1690.00
1703.00
1710.00
1713.00
1718.00
1729.00
1733.00
1740.00
1744.00
1744.00
1744.00
1745.00
1749.00
1750.00
1747.00
1744.00
1743.00
1735.00
1731.00
1725.00
1714.00
1712.00
1703.00
1703.00
1705.00
1703.00
1703.00
1712.00
1713.00
1725.00
1730.00
1733.00
1733.00
1729.00
1722.00
1716.00
1714.00
1710.00
1707.00
1707.00
1695.00
1691.00
1684.00
1680.00
1680.00
1686.00
1693.00
1701.00
1707.00
1710.00
1711.00
1716.00
1723.00
1718.00
1711.00
1711.00
1707.00
1703.00
1697.00
1698.00
1697.00
1696.00
1694.00
1699.00
1699.00
1702.00
1712.00
1712.00
1719.00
1728.00
1738.00
1742.00
1742.00
1744.00
1743.00
1742.00
1741.00
1733.00
1735.00
1731.00
1726.00
1720.00
1715.00
1713.00
1713.00
1711.00
1706.00
1702.00
1707.00
1705.00
1701.00
1703.00
1701.00
1696.00
1693.00
1691.00
1690.00
1693.00
1693.00
1691.00
1699.00
1699.00
1706.00
1711.00
1714.00
1714.00
1712.00
1715.00
1716.00
1721.00
1722.00
1719.00
1716.00
1714.00
1718.00
1712.00
1712.00
1708.00
1705.00
1705.00
1708.00
1707.00
1711.00
1711.00
1712.00
1712.00
1712.00
1715.00
1715.00
1719.00
1726.00
1726.00
1725.00
1727.00
1725.00
1717.00
1717.00
1716.00
1722.00
1717.00
1714.00
1711.00
1712.00
1711.00
1707.00
1711.00
1712.00
1717.00
1726.00
1745.00
1730.00
1726.00
1722.00
1724.00
1725.00
1723.00
1731.00
1737.00
1739.00
1739.00
1742.00
1737.00
1743.00
1738.00
1730.00
1723.00
1712.00
1712.00
1712.00
1713.00
1715.00
1719.00
1728.00
1733.00
1740.00
1739.00
1735.00
1733.00
1730.00
1733.00
1728.00
1728.00
1728.00
1726.00
1727.00
1723.00
1715.00
1718.00
1719.00
1723.00
1725.00
1727.00
1725.00
1727.00
1719.00
1715.00
1714.00
1712.00
1712.00
1713.00
1722.00
1723.00
1721.00
1721.00
1726.00
1723.00
1723.00
1724.00
1725.00
1725.00
1729.00
1727.00
1735.00
1731.00
1731.00
1722.00
1716.00
1711.00
1703.00
1703.00
1697.00
1696.00
1698.00
1705.00
1710.00
1712.00
1712.00
1717.00
1723.00
1727.00
1728.00
1727.00
1727.00
1726.00
1712.00
1700.00
1697.00
1690.00
1688.00
1687.00
1697.00
1697.00
1699.00
1701.00
1702.00
1701.00
1699.00
1696.00
1692.00
1693.00
1700.00
1706.00
1713.00
1723.00
1725.00
1726.00
1727.00
1722.00
1718.00
1717.00
1715.00
1718.00
1722.00
1724.00
1727.00
1729.00
1734.00
1733.00
1729.00
1733.00
1738.00
1735.00
1738.00
1736.00
1731.00
1731.00
1728.00
1726.00
1723.00
1720.00
1723.00
1722.00
1724.00
1726.00
1727.00
1721.00
1722.00
1717.00
1709.00
1711.00
1707.00
1706.00
1701.00
1698.00
1697.00
1697.00
1695.00
1697.00
1705.00
1701.00
1702.00
1699.00
1699.00
1695.00
1691.00
1694.00
1695.00
1691.00
1693.00
1697.00
1694.00
1701.00
1708.00
1713.00
1716.00
1721.00
1718.00
1714.00
1712.00
1707.00
1699.00
1702.00
1703.00
1702.00
1703.00
1709.00
1710.00
1710.00
1712.00
1718.00
1727.00
1729.00
1741.00
1744.00
1747.00
1750.00
1750.00
1745.00
1738.00
1731.00
1729.00
1718.00
1712.00
1712.00
1710.00
1703.00
1706.00
1707.00
1711.00
1710.00
1703.00
1703.00
1700.00
1695.00
1689.00
1693.00
1691.00
1694.00
1698.00
1705.00
1711.00
1713.00
1719.00
1722.00
1724.00
1727.00
1726.00
1729.00
1730.00
1735.00
1731.00
1728.00
1727.00
1723.00
1718.00
1718.00
1712.00
1715.00
1713.00
1719.00
1717.00
1718.00
1718.00
1718.00
1715.00
1712.00
1713.00
1719.00
1725.00
1723.00
1726.00
1726.00
1729.00
1723.00
1721.00
1727.00
1719.00
1716.00
1714.00
1712.00
1712.00
1712.00
1706.00
1703.00
1699.00
1694.00
1698.00
1693.00
1695.00
1697.00
1703.00
1703.00
1703.00
1706.00
1711.00
1711.00
1712.00
1713.00
1712.00
1705.00
1699.00
1694.00
1681.00
1680.00
1682.00
1681.00
1680.00
1682.00
1691.00
1696.00
1700.00
1706.00
1710.00
1712.00
1712.00
1714.00
1712.00
1712.00
1711.00
1708.00
1702.00
1693.00
1693.00
1690.00
1692.00
1687.00
1695.00
1698.00
1705.00
1712.00
1717.00
1731.00
1739.00
1748.00
1755.00
1753.00
1749.00
1747.00
1744.00
1738.00
1731.00
1724.00
1718.00
1714.00
1706.00
1701.00
1697.00
1700.00
1717.00
1703.00
1707.00
1710.00
1708.00
1708.00
1699.00
1701.00
1698.00
1702.00
1709.00
1711.00
1707.00
1711.00
1709.00
1709.00
1703.00
1701.00
1695.00
1693.00
1693.00
1695.00
1693.00
1692.00
1695.00
1695.00
1688.00
1687.00
1687.00
1687.00
1690.00
1687.00
1684.00
1681.00
1680.00
1682.00
1682.00
1691.00
1699.00
1706.00
1714.00
1728.00
1733.00
1743.00
1744.00
1744.00
1744.00
1739.00
1732.00
1732.00
1728.00
1725.00
1722.00
1714.00
1715.00
1712.00
1717.00
1717.00
1718.00
1712.00
1702.00
1695.00
1691.00
1691.00
1693.00
1703.00
1710.00
1721.00
1728.00
1729.00
1728.00
1723.00
1714.00
1712.00
1709.00
1707.00
1699.00
1696.00
1695.00
1698.00
1702.00
1706.00
1711.00
1711.00
1709.00
1707.00
1702.00
1706.00
1708.00
1699.00
1679.00
1690.00
1692.00
1687.00
1683.00
1687.00
1687.00
1686.00
1683.00
1695.00
1686.00
1691.00
1699.00
1711.00
1713.00
1713.00
1714.00
1728.00
1734.00
1737.00
1729.00
1735.00
1733.00
1726.00
1717.00
1709.00
1700.00
1692.00
1687.00
1695.00
1697.00
1713.00
1719.00
1725.00
1723.00
1726.00
1727.00
1734.00
1728.00
1731.00
1734.00
1735.00
1735.00
1731.00
1728.00
1719.00
1712.00
1710.00
1705.00
1706.00
1712.00
1717.00
1711.00
1712.00
1712.00
1707.00
1706.00
1711.00
1709.00
1706.00
1703.00
1699.00
1697.00
1685.00
1685.00
1680.00
1680.00
1680.00
1682.00
1693.00
1699.00
1703.00
1705.00
1711.00
1712.00
1713.00
1714.00
1715.00
1712.00
1710.00
1707.00
1707.00
1706.00
1707.00
1709.00
1711.00
1710.00
1709.00
1710.00
1712.00
1711.00
1712.00
1714.00
1712.00
1719.00
1722.00
1728.00
1731.00
1735.00
1730.00
1730.00
1728.00
1731.00
1729.00
1728.00
1726.00
1724.00
1722.00
1716.00
1716.00
1730.00
1712.00
1703.00
1690.00
1683.00
1679.00
1671.00
1681.00
1675.00
1682.00
1691.00
1692.00
1697.00
1697.00
1699.00
1701.00
1702.00
1705.00
1703.00
1701.00
1709.00
1714.00
1721.00
1723.00
1728.00
1730.00
1729.00
1729.00
1731.00
1725.00
1722.00
1719.00
1721.00
1723.00
1722.00
1723.00
1723.00
1722.00
1723.00
1728.00
1731.00
1730.00
1734.00
1735.00
1731.00
1727.00
1726.00
1721.00
1719.00
1714.00
1713.00
1711.00
1712.00
1712.00
1713.00
1712.00
1712.00
1712.00
1710.00
1711.00
1712.00
1719.00
1719.00
1723.00
1718.00
1712.00
1709.00
1703.00
1698.00
1696.00
1694.00
1694.00
1694.00
1697.00
1706.00
1709.00
1712.00
1710.00
1716.00
1715.00
1714.00
1713.00
1713.00
1714.00
1719.00
1715.00
1712.00
1707.00
1701.00
1696.00
1685.00
1683.00
1689.00
1690.00
1690.00
1701.00
1707.00
1709.00
1711.00
1714.00
1719.00
1728.00
1733.00
1734.00
1739.00
1743.00
1744.00
1749.00
1755.00
1759.00
1764.00
1763.00
1766.00
1760.00
1751.00
1744.00
1739.00
1728.00
1718.00
1719.00
1719.00
1725.00
1728.00
1734.00
1739.00
1743.00
1745.00
1751.00
1753.00
1749.00
1752.00
1746.00
1743.00
1737.00
1735.00
1728.00
1722.00
1712.00
1707.00
1706.00
1705.00
1699.00
1701.00
1701.00
1713.00
1699.00
1687.00
1680.00
1683.00
1683.00
1682.00
1683.00
1684.00
1689.00
1690.00
1690.00
1693.00
1696.00
1695.00
1697.00
1700.00
1701.00
1701.00
1703.00
1703.00
1706.00
1707.00
1703.00
1707.00
1707.00
1710.00
1711.00
1712.00
1713.00
1712.00
1723.00
1706.00
1703.00
1706.00
1712.00
1719.00
1723.00
1730.00
1738.00
1741.00
1744.00
1743.00
1743.00
1733.00
1728.00
1713.00
1706.00
1694.00
1691.00
1694.00
1701.00
1710.00
1712.00
1729.00
1718.00
1718.00
1723.00
1723.00
1727.00
1719.00
1719.00
1715.00
1719.00
1714.00
1713.00
1712.00
1709.00
1702.00
1704.00
1697.00
1696.00
1696.00
1691.00
1694.00
1703.00
1698.00
1697.00
1703.00
1712.00
1717.00
1723.00
1725.00
1728.00
1731.00
1730.00
1731.00
1730.00
1727.00
1726.00
1722.00
1723.00
1721.00
1717.00
1717.00
1714.00
1712.00
1712.00
1711.00
1707.00
1698.00
1701.00
1699.00
1695.00
1699.00
1696.00
1703.00
1710.00
1710.00
1712.00
1712.00
1710.00
1706.00
1694.00
1689.00
1683.00
1682.00
1681.00
1685.00
1693.00
1694.00
1692.00
1690.00
1691.00
1697.00
1702.00
1711.00
1712.00
1705.00
1709.00
1703.00
1711.00
1712.00
1717.00
1726.00
1725.00
1725.00
1723.00
1725.00
1718.00
1714.00
1712.00
1710.00
1703.00
1695.00
1691.00
1693.00
1699.00
1709.00
1716.00
1722.00
1731.00
1741.00
1746.00
1750.00
1759.00
1766.00
1765.00
1762.00
1760.00
1758.00
1749.00
1744.00
1742.00
1735.00
1729.00
1722.00
1718.00
1719.00
1716.00
1722.00
1721.00
1718.00
1715.00
1719.00
1721.00
1723.00
1715.00
1715.00
1712.00
1705.00
1699.00
1694.00
1693.00
1683.00
1680.00
1678.00
1677.00
1677.00
1676.00
1680.00
1686.00
1693.00
1691.00
1695.00
1696.00
1701.00
1703.00
1711.00
1712.00
1713.00
1712.00
1712.00
1695.00
1700.00
1697.00
1695.00
1689.00
1690.00
1685.00
1682.00
1680.00
1680.00
1679.00
1679.00
1689.00
1703.00
1713.00
1719.00
1724.00
1722.00
1728.00
1727.00
1730.00
1729.00
1724.00
1723.00
1716.00
1712.00
1711.00
1709.00
1701.00
1696.00
1698.00
1699.00
1711.00
1725.00
1734.00
1744.00
1747.00
1749.00
1748.00
1746.00
1744.00
1742.00
1734.00
1728.00
1723.00
1714.00
1711.00
1702.00
1696.00
1694.00
1691.00
1692.00
1694.00
1703.00
1707.00
1713.00
1722.00
1723.00
1727.00
1724.00
1718.00
1719.00
1715.00
1715.00
1712.00
1712.00
1709.00
1707.00
1707.00
1699.00
1693.00
1690.00
1686.00
1685.00
1697.00
1715.00
1699.00
1701.00
1698.00
1694.00
1690.00
1687.00
1685.00
1686.00
1686.00
1698.00
1697.00
1692.00
1689.00
1678.00
1690.00
1674.00
1675.00
1675.00
1682.00
1687.00
1701.00
1712.00
1727.00
1743.00
1753.00
1751.00
1744.00
1738.00
1733.00
1727.00
1718.00
1712.00
1712.00
1712.00
1705.00
1699.00
1701.00
1702.00
1701.00
1702.00
1705.00
1702.00
1696.00
1695.00
1687.00
1682.00
1677.00
1679.00
1680.00
1679.00
1680.00
1680.00
1681.00
1683.00
1686.00
1690.00
1695.00
1702.00
1707.00
1715.00
1722.00
1728.00
1729.00
1733.00
1733.00
1737.00
1735.00
1732.00
1728.00
1726.00
1719.00
1723.00
1723.00
1718.00
1715.00
1714.00
1709.00
1714.00
1714.00
1719.00
1718.00
1720.00
1715.00
1715.00
1712.00
1712.00
1709.00
1703.00
1697.00
1694.00
1693.00
1693.00
1691.00
1693.00
1689.00
1690.00
1693.00
1698.00
1696.00
1705.00
1712.00
1728.00
1732.00
1734.00
1728.00
1723.00
1711.00
1698.00
1687.00
1689.00
1686.00
1686.00
1687.00
1686.00
1695.00
1699.00
1712.00
1716.00
1723.00
1721.00
1725.00
1722.00
1722.00
1739.00
1712.00
1707.00
1699.00
1697.00
1697.00
1698.00
1706.00
1709.00
1712.00
1713.00
1712.00
1717.00
1721.00
1726.00
1729.00
1731.00
1733.00
1731.00
1728.00
1729.00
1725.00
1726.00
1721.00
1715.00
1717.00
1717.00
1718.00
1718.00
1719.00
1712.00
1717.00
1716.00
1723.00
1727.00
1730.00
1735.00
1735.00
1738.00
1735.00
1734.00
1733.00
1731.00
1731.00
1711.00
1719.00
1713.00
1712.00
1713.00
1714.00
1714.00
1712.00
1712.00
1715.00
1712.00
1709.00
1710.00
1709.00
1706.00
1698.00
1691.00
1683.00
1680.00
1679.00
1680.00
1685.00
1690.00
1683.00
1684.00
1685.00
1683.00
1681.00
1685.00
1686.00
1690.00
1697.00
1701.00
1712.00
1719.00
1719.00
1719.00
1716.00
1717.00
1714.00
1711.00
1709.00
1703.00
1709.00
1707.00
1711.00
1707.00
1702.00
1701.00
1707.00
1703.00
1701.00
1706.00
1703.00
1702.00
1699.00
1701.00
1705.00
1708.00
1710.00
1713.00
1717.00
1725.00
1733.00
1742.00
1744.00
1751.00
1755.00
1758.00
1757.00
1758.00
1756.00
1751.00
1747.00
1744.00
1742.00
1738.00
1731.00
1728.00
1728.00
1730.00
1728.00
1728.00
1728.00
1725.00
1726.00
1727.00
1738.00
1723.00
1725.00
1731.00
1735.00
1739.00
1743.00
1744.00
1744.00
1742.00
1743.00
1730.00
1726.00
1714.00
1706.00
1693.00
1687.00
1687.00
1686.00
1687.00
1687.00
1695.00
1699.00
1703.00
1702.00
1705.00
1707.00
1707.00
1702.00
1709.00
1712.00
1712.00
1707.00
1709.00
1705.00
1697.00
1696.00
1697.00
1700.00
1699.00
1701.00
1707.00
1710.00
1705.00
1706.00
1712.00
1719.00
1727.00
1735.00
1733.00
1735.00
1733.00
1728.00
1717.00
1710.00
1705.00
1699.00
1698.00
1705.00
1707.00
1712.00
1719.00
1723.00
1733.00
1741.00
1744.00
1742.00
1735.00
1739.00
1735.00
1735.00
1733.00
1729.00
1729.00
1728.00
1727.00
1731.00
1733.00
1729.00
1729.00
1735.00
1728.00
1734.00
1741.00
1746.00
1749.00
1754.00
1755.00
1755.00
1747.00
1744.00
1738.00
1728.00
1726.00
1717.00
1713.00
1711.00
1703.00
1701.00
1702.00
1699.00
1693.00
1691.00
1689.00
1679.00
1690.00
1689.00
1691.00
1687.00
1691.00
1686.00
1680.00
1680.00
1677.00
1680.00
1680.00
1681.00
1687.00
1686.00
1683.00
1681.00
1670.00
1663.00
1663.00
1678.00
1683.00
1694.00
1710.00
1719.00
1724.00
1728.00
1727.00
1728.00
1724.00
1715.00
1717.00
1716.00
1717.00
1712.00
1714.00
1713.00
1717.00
1714.00
1717.00
1717.00
1715.00
1718.00
1719.00
1719.00
1723.00
1730.00
1727.00
1730.00
1729.00
1731.00
1731.00
1726.00
1723.00
1717.00
1717.00
1719.00
1717.00
1714.00
1722.00
1723.00
1722.00
1728.00
1730.00
1728.00
1727.00
1722.00
1727.00
1722.00
1723.00
1718.00
1719.00
1713.00
1714.00
1711.00
1709.00
1699.00
1691.00
1680.00
1677.00
1680.00
1683.00
1693.00
1704.00
1714.00
1723.00
1726.00
1722.00
1718.00
1718.00
1713.00
1710.00
1702.00
1696.00
1689.00
1685.00
1683.00
1690.00
1697.00
1700.00
1703.00
1711.00
1712.00
1712.00
1709.00
1713.00
1712.00
1712.00
1713.00
1713.00
1714.00
1713.00
1713.00
1710.00
1707.00
1712.00
1715.00
1727.00
1731.00
1739.00
1743.00
1743.00
1744.00
1739.00
1735.00
1728.00
1723.00
1723.00
1718.00
1712.00
1712.00
1710.00
1711.00
1711.00
1712.00
1711.00
1711.00
1712.00
1715.00
1719.00
1715.00
1725.00
1728.00
1732.00
1731.00
1734.00
1743.00
1731.00
1725.00
1722.00
1717.00
1715.00
1715.00
1719.00
1717.00
1718.00
1722.00
1726.00
1731.00
1737.00
1742.00
1744.00
1744.00
1742.00
1734.00
1728.00
1719.00
1717.00
1712.00
1711.00
1707.00
1700.00
1699.00
1702.00
1709.00
1712.00
1715.00
1717.00
1716.00
1715.00
1712.00
1712.00
1710.00
1702.00
1705.00
1707.00
1716.00
1725.00
1735.00
1737.00
1734.00
1737.00
1734.00
1731.00
1727.00
1717.00
1714.00
1711.00
1706.00
1712.00
1719.00
1727.00
1728.00
1724.00
1719.00
1715.00
1713.00
1717.00
1713.00
1712.00
1712.00
1712.00
1712.00
1713.00
1712.00
1708.00
1702.00
1699.00
1709.00
1705.00
1707.00
1712.00
1714.00
1717.00
1719.00
1717.00
1713.00
1714.00
1712.00
1711.00
1712.00
1707.00
1705.00
1709.00
1707.00
1702.00
1701.00
1698.00
1697.00
1694.00
1689.00
1687.00
1692.00
1688.00
1691.00
1687.00
1687.00
1686.00
1686.00
1691.00
1687.00
1685.00
1689.00
1689.00
1693.00
1697.00
1703.00
1712.00
1718.00
1715.00
1725.00
1726.00
1728.00
1728.00
1721.00
1716.00
1712.00
1709.00
1706.00
1706.00
1703.00
1706.00
1707.00
1705.00
1707.00
1710.00
1709.00
1707.00
1705.00
1707.00
1712.00
1717.00
1714.00
1712.00
1705.00
1697.00
1694.00
1691.00
1689.00
1689.00
1693.00
1692.00
1698.00
1702.00
1708.00
1711.00
1712.00
1711.00
1713.00
1713.00
1712.00
1712.00
1710.00
1711.00
1707.00
1711.00
1711.00
1709.00
1710.00
1712.00
1708.00
1712.00
1712.00
1715.00
1713.00
1719.00
1723.00
1725.00
1722.00
1723.00
1726.00
1725.00
1722.00
1719.00
1718.00
1713.00
1711.00
1706.00
1702.00
1698.00
1694.00
1691.00
1686.00
1690.00
1691.00
1693.00
1702.00
1707.00
1709.00
1709.00
1707.00
1706.00
1702.00
1709.00
1707.00
1712.00
1710.00
1712.00
1710.00
1705.00
1695.00
1683.00
1682.00
1679.00
1677.00
1683.00
1693.00
1703.00
1709.00
1715.00
1719.00
1725.00
1730.00
1725.00
1728.00
1729.00
1729.00
1730.00
1734.00
1730.00
1730.00
1730.00
1729.00
1729.00
1725.00
1723.00
1727.00
1728.00
1729.00
1725.00
1725.00
1717.00
1717.00
1717.00
1723.00
1724.00
1723.00
1721.00
1722.00
1722.00
1725.00
1726.00
1723.00
1730.00
1730.00
1737.00
1737.00
1742.00
1742.00
1740.00
1744.00
1742.00
1744.00
1741.00
1742.00
1737.00
1731.00
1728.00
1727.00
1729.00
1731.00
1735.00
1743.00
1744.00
1744.00
1742.00
1733.00
1731.00
1719.00
1719.00
1723.00
1725.00
1727.00
1731.00
1733.00
1731.00
1728.00
1726.00
1722.00
1717.00
1712.00
1707.00
1695.00
1694.00
1685.00
1680.00
1682.00
1686.00
1694.00
1712.00
1719.00
1726.00
1728.00
1728.00
1729.00
1732.00
1731.00
1731.00
1733.00
1735.00
1730.00
1735.00
1731.00
1728.00
1725.00
1726.00
1725.00
1723.00
1724.00
1727.00
1725.00
1725.00
1723.00
1725.00
1718.00
1725.00
1721.00
1718.00
1723.00
1727.00
1728.00
1728.00
1730.00
1727.00
1728.00
1723.00
1718.00
1715.00
1712.00
1712.00
1706.00
1702.00
1693.00
1689.00
1699.00
1705.00
1711.00
1713.00
1735.00
1719.00
1726.00
1723.00
1727.00
1723.00
1722.00
1718.00
1715.00
1722.00
1729.00
1733.00
1742.00
1744.00
1745.00
1746.00
1744.00
1747.00
1754.00
1757.00
1757.00
1757.00
1757.00
1743.00
1750.00
1743.00
1734.00
1725.00
1721.00
1715.00
1710.00
1709.00
1710.00
1712.00
1712.00
1713.00
1717.00
1723.00
1723.00
1727.00
1729.00
1723.00
1719.00
1709.00
1702.00
1698.00
1697.00
1697.00
1698.00
1705.00
1707.00
1713.00
1713.00
1719.00
1722.00
1723.00
1717.00
1717.00
1717.00
1711.00
1711.00
1710.00
1708.00
1711.00
1709.00
1710.00
1710.00
1706.00
1706.00
1703.00
1708.00
1712.00
1712.00
1713.00
1712.00
1712.00
1713.00
1712.00
1713.00
1712.00
1712.00
1712.00
1714.00
1712.00
1713.00
1712.00
1712.00
1709.00
1709.00
1709.00
1710.00
1709.00
1709.00
1710.00
1709.00
1702.00
1698.00
1712.00
1691.00
1687.00
1685.00
1687.00
1687.00
1693.00
1693.00
1694.00
1690.00
1686.00
1690.00
1695.00
1701.00
1707.00
1712.00
1713.00
1717.00
1712.00
1712.00
1711.00
1703.00
1703.00
1703.00
1702.00
1700.00
1701.00
1702.00
1712.00
1714.00
1725.00
1730.00
1734.00
1737.00
1742.00
1742.00
1741.00
1738.00
1734.00
1728.00
1728.00
1723.00
1717.00
1717.00
1710.00
1702.00
1701.00
1703.00
1708.00
1712.00
1713.00
1719.00
1723.00
1719.00
1717.00
1727.00
1727.00
1727.00
1726.00
1726.00
1719.00
1719.00
1716.00
1714.00
1714.00
1713.00
1714.00
1712.00
1719.00
1723.00
1725.00
1725.00
1721.00
1721.00
1719.00
1712.00
1712.00
1705.00
1706.00
1707.00
1703.00
1700.00
1697.00
1691.00
1693.00
1693.00
1697.00
1707.00
1712.00
1713.00
1714.00
1715.00
1719.00
1723.00
1721.00
1718.00
1723.00
1725.00
1729.00
1730.00
1733.00
1729.00
1728.00
1725.00
1723.00
1724.00
1721.00
1719.00
1716.00
1714.00
1712.00
1714.00
1722.00
1721.00
1722.00
1717.00
1712.00
1701.00
1699.00
1697.00
1694.00
1693.00
1692.00
1696.00
1694.00
1693.00
1695.00
1694.00
1691.00
1693.00
1691.00
1691.00
1694.00
1695.00
1694.00
1696.00
1696.00
1697.00
1694.00
1693.00
1687.00
1680.00
1680.00
1683.00
1689.00
1695.00
1702.00
1707.00
1711.00
1711.00
1707.00
1710.00
1709.00
1705.00
1698.00
1695.00
1698.00
1703.00
1699.00
1702.00
1703.00
1703.00
1703.00
1704.00
1709.00
1708.00
1712.00
1710.00
1709.00
1712.00
1712.00
1712.00
1713.00
1719.00
1726.00
1728.00
1730.00
1731.00
1730.00
1727.00
1725.00
1713.00
1711.00
1703.00
1703.00
1703.00
1692.00
1699.00
1700.00
1699.00
1698.00
1702.00
1701.00
1697.00
1701.00
1706.00
1706.00
1708.00
1711.00
1712.00
1707.00
1707.00
1706.00
1706.00
1711.00
1712.00
1715.00
1715.00
1712.00
1705.00
1692.00
1683.00
1682.00
1682.00
1681.00
1697.00
1707.00
1721.00
1729.00
1737.00
1739.00
1739.00
1738.00
1733.00
1728.00
1715.00
1712.00
1699.00
1695.00
1694.00
1695.00
1694.00
1695.00
1701.00
1703.00
1706.00
1707.00
1711.00
1710.00
1710.00
1711.00
1707.00
